0.17572,0.0073306,0.45594,0.82906,0.47022,-0.15313,-0.45841,-0.45,-0.52389,-0.72027,-0.51191,0.085276,0.29421,-0.041946,-0.22297,0.0014157,0.1233,-0.021723,-0.12999,-0.19364,-0.17704,-0.053509,-0.17537,-0.23511,0.12541,0.063051,-0.29421,0.069493,0.23201,-0.36055,-0.34731,0.10965,0.031399,-0.043929,0.017411,-0.12924,-0.064542,0.071545,-0.047155,0.049363,0.25702,0.12662,-0.0058119,0.086806,0.23464,0.29999,0.1082,0.019264,0.33432,0.3422,0.026893,0.10314,0.081509,-0.15264,0.18584,0.3951,-0.084229,-0.14338,0.20453,0.070914,-0.093322,0.075529,0.069107,-0.099548,-0.081431,0.047947,0.062848,-0.050977,-0.096367,-0.0028662,0.056832,0.03949,0.033045,-0.0046072,-0.035728,0.041233,0.063863,-0.030235,-0.033696,0.031587,0.083251,0.11126,-0.030566,-0.06728,0.19435,0.073139,-0.33649,-0.16278,0.11115,-0.058664,-0.043457,0.10002,0.019413,0.015796,-0.066905,-0.56191
1.8343,-0.20507,-0.35358,-0.06292,-0.41821,0.18087,-0.094913,-1.2212,-0.1398,0.48482,-0.13793,0.21936,0.37017,-0.71006,-0.61465,0.61546,0.19755,-0.72783,0.46456,0.06597,-0.77787,0.74003,-0.04196,0.085481,-0.15171,-1.1455,1.7262,0.46576,-0.89395,1.1623,-0.18837,0.27646,0.51394,-0.17031,0.62952,-0.29628,0.23494,0.26554,0.11376,0.32528,-0.67314,-0.12186,0.22155,0.40886,-0.19997,-0.4907,-0.12666,0.15133,0.47492,-0.57594,0.084207,-0.073131,0.061661,0.56353,-1.1292,-0.056689,0.70018,-0.24867,-0.053641,0.0587,-0.059237,-0.090358,-0.080003,0.030676,0.39763,0.051543,-0.24006,0.27666,0.020676,-0.78615,-0.23693,0.12517,-0.29012,0.16759,-0.52528,0.034501,0.948,-0.87931,-0.46372,0.61054,0.0083951,-0.25801,0.033582,0.25495,-0.28472,-0.037163,0.21419,0.29209,0.7462,1.2591,1.0044,-0.40744,-1.4818,-1.7596,-0.48337,2.9584
0.037109,-0.078545,0.43855,0.78597,0.34071,-0.061369,-0.036647,-0.23424,-0.61499,-0.64239,-0.38708,-0.015118,0.15982,-0.13128,-0.24882,0.038977,0.1059,-0.04884,-0.20776,-0.28061,-0.062123,0.04658,-0.12963,-0.088147,-0.032622,-0.19722,-0.10467,0.10898,-0.023165,-0.23283,-0.16513,0.012996,-0.014415,-0.19351,-0.1711,0.056678,0.12136,-0.011248,-0.0090088,0.149,0.1849,0.11949,0.13127,0.18529,0.23481,0.26815,0.23174,0.18211,0.1778,0.14053,0.08242,0.10204,0.11401,0.050271,0.062539,0.12315,0.063153,0.014547,0.049344,0.0034172,-0.046307,0.037912,0.1009,0.024355,-0.051572,-0.035867,0.0051688,0.0074812,-0.066781,-0.050482,0.13077,0.018556,-0.28987,-0.075295,0.26848,0.10052,-0.070905,-0.0038495,-0.047471,-0.13343,-0.10581,0.027395,0.14175,0.068879,0.025142,0.050073,-0.099988,-0.13305,-0.0017974,0.0087338,0.12017,0.14144,-0.060893,0.017476,0.0080808,-0.6783
2.0171,0.046312,-0.42851,0.25937,-0.042258,-1.0011,-0.42229,0.33101,0.27679,-0.019733,-0.29064,-0.056055,0.28037,-0.23585,-0.64388,-0.13873,0.089809,-0.13152,-0.075588,0.032658,-0.00085535,-0.01708,0.030787,-0.10784,-0.30722,-0.14292,-0.094332,-0.26717,-0.14735,-0.047805,-0.079862,-0.052987,-0.12105,-0.12242,-0.0014942,0.012273,-0.047249,-0.095958,-0.059703,0.09269,0.083733,-0.03994,0.10486,0.16983,0.02282,0.14475,0.28522,0.22435,0.15901,0.11659,0.19571,0.22474,0.15352,0.13342,0.054102,0.09201,0.13111,-0.01448,0.014133,0.023447,-0.092247,-0.0060491,0.037726,-0.060003,-0.080869,-0.019053,0.067378,0.03312,-0.086236,-0.07526,0.020319,0.039495,-0.003656,-0.026374,0.0037636,0.01702,-0.055474,-0.038646,0.025793,-0.058286,-0.0098365,0.038371,-0.040829,0.060017,0.0086587,0.088693,0.28545,0.38195,0.90159,0.24949,-0.6316,0.27811,-0.040101,-0.75752,-0.20914,0.017832
-1.8146,1.5076,1.7471,-0.38478,-1.7622,-1.3719,0.32924,0.83549,-0.30399,0.14224,-0.04789,-0.86753,-0.60948,-0.096489,-0.082702,-0.078914,-0.027275,-0.27182,0.13356,-0.026592,-0.25081,0.11251,-0.21184,-0.022131,0.090624,-0.32691,-0.033404,-0.00028616,-0.1033,-0.11172,-0.005084,0.054297,-0.0058829,0.13778,0.24642,0.34988,0.30558,0.43718,0.33116,0.41492,0.34389,0.15356,0.19638,-0.02673,0.15239,-0.022818,-0.23718,-0.069616,-0.05245,-0.022622,-0.17548,0.0085546,0.10884,-0.13665,0.088418,0.021355,-0.18314,0.0091528,-0.025132,0.053969,-0.030637,-0.14474,0.1241,-0.050036,-0.09156,-0.017525,-0.048909,0.048332,-0.066712,-0.12768,0.10882,0.20606,0.12592,0.095279,0.1657,-0.061965,-0.28694,-0.06701,-0.12061,-0.20996,-0.18905,0.17922,-0.067181,-0.228,0.16449,-0.001969,0.0034617,-0.1899,0.029053,0.21573,-0.11215,-0.076572,-0.25479,0.30981,0.87343,-0.69328
-0.99155,1.8995,-0.27522,-0.74264,0.060636,-1.9756,-0.70809,1.4439,0.41796,-0.77717,0.17506,0.37128,-0.80443,-0.6012,-0.16704,-0.019844,0.41588,-0.63236,-0.32735,0.99447,-0.56689,-0.33667,0.37858,-0.43521,-0.047354,0.37105,-0.1196,-0.4834,0.077123,0.24929,0.13135,-0.16082,0.037755,0.54544,0.12833,0.1756,0.30029,0.29705,0.2169,0.31616,0.031359,0.22119,0.29212,0.043055,-0.0083585,0.0052623,0.1227,-0.20983,-0.030521,-0.068406,0.36531,-0.19697,-0.28903,0.21226,-0.27212,0.59097,-0.59373,0.038682,0.88723,-0.98484,0.027146,0.35285,-0.041038,0.035664,-0.086912,-0.15873,0.096369,0.1518,-0.21237,-0.079341,0.19419,-0.10574,0.25046,0.33739,-0.28494,0.41886,-0.2414,-0.52852,0.13181,-0.1722,0.18309,-0.26642,-0.30723,0.44287,-0.35665,-0.018885,0.30484,-0.174,-0.061201,0.062647,0.35865,-0.35447,-0.24922,0.34173,0.0065474,0.039201
1.1659,0.55449,0.34304,0.19613,-0.23176,-0.65836,-0.79639,-0.70337,-0.40088,-0.062055,-0.064816,-0.22142,-0.023381,0.19892,0.065084,-0.011786,-0.097136,-0.37688,-0.24851,0.083605,0.0046696,-0.018596,-0.026634,-0.24072,0.15597,0.5178,-0.24744,-0.55655,0.26621,0.28029,-0.45832,-0.32737,0.11968,-0.090256,-0.26158,0.020016,0.086051,-0.14488,-0.097642,0.077015,-0.022917,-0.032868,0.21801,0.20467,-0.02364,0.093606,0.27686,0.056558,-0.0049386,0.36899,0.37948,0.027301,0.09201,0.26927,0.067995,-0.040464,0.097782,0.08713,-0.0055846,0.0613,0.16307,0.072017,-0.14562,-0.12002,0.12178,0.062096,-0.17637,-0.069762,0.098069,0.010921,0.015863,0.088855,0.0245,0.045273,-0.00042717,-0.22841,-0.12957,0.15649,0.11448,0.045725,0.10387,0.089121,0.15258,0.071651,-0.3125,-0.30887,0.07257,0.045289,-0.13286,0.055241,0.098394,-0.19544,-0.12041,0.2012,0.049208,-0.75486
0.58064,0.48149,0.74927,0.662,-0.04062,-0.62017,-0.73295,-0.73618,-0.70323,-0.14349,0.098405,-0.15926,0.024459,0.13231,0.073206,-0.090992,-0.38542,-0.089078,0.0027776,-0.15971,0.094257,-0.10908,-0.34729,-0.10313,0.15599,0.02134,-0.59567,-0.34613,0.15574,-0.096644,-0.01809,-0.25943,-0.18032,0.58351,0.0688,-0.24468,0.27856,0.28443,0.29694,0.14252,0.098722,0.39318,0.35628,0.26253,0.012717,-0.0014735,0.235,-0.050718,-0.0091827,0.21353,-0.066183,-0.022648,0.14019,-0.020134,-0.029919,0.06551,0.0086196,-0.11315,-0.12088,0.074281,0.1382,-0.096138,-0.065305,0.14671,0.020453,0.035292,0.21798,-0.084037,-0.19726,0.16774,0.0047096,-0.16017,0.10563,-0.04605,-0.12781,0.12439,0.017535,-0.13383,-0.043792,-0.022962,-0.062785,-0.14133,-0.12494,0.14428,0.14455,-0.036795,0.12334,-0.015295,-0.40801,-0.139,0.20859,-0.027302,-0.055314,0.19229,0.047901,-0.59791
-0.55303,1.7261,0.4574,-0.55409,-1.169,-2.1202,-0.011405,1.0774,0.23832,-0.14447,-0.30977,0.18644,-0.36423,-0.46055,0.15158,-0.16192,-0.22151,-0.10786,0.14831,0.013392,-0.34423,0.20742,-0.1539,-0.35121,0.38668,-0.27095,-0.21035,0.052619,0.14181,-0.19766,0.0091679,0.28648,-0.096132,0.60062,0.13822,0.21883,0.44104,0.27173,0.40322,0.14873,0.03905,0.37617,0.13903,-0.028892,-0.0014117,0.071322,0.0099769,-0.3203,0.2094,-0.020383,-0.14591,-0.04039,-0.066517,-0.0080329,0.16371,-0.030817,-0.10939,0.20731,-0.10718,-0.17172,0.13728,-0.052385,-0.16795,0.25059,-0.19882,-0.098038,0.17935,-0.27104,-0.035683,0.25412,-0.21578,0.03122,0.43129,-0.059472,0.0068856,0.045522,-0.28693,-0.14053,0.24015,-0.36642,-0.32474,0.44029,-0.37373,-0.020046,0.31882,-0.36879,0.077924,-0.021472,-0.012355,0.12866,-0.15764,-0.035642,0.02138,0.13382,0.21935,-0.29541
2.7691,0.0076202,-0.25325,-1.0208,-1.0529,0.8904,0.24576,-0.17084,0.35051,-0.92481,-1.0321,-0.13139,-0.24848,-0.23029,0.042371,-0.063642,-0.22269,-0.076201,-0.0036573,-0.17143,-0.12003,-0.02963,0.10225,-0.059428,-0.27993,-0.01395,-0.1361,-0.35746,0.16922,0.049651,-0.013358,0.19523,0.15834,0.46096,0.25462,0.22774,0.5065,0.37985,0.056553,0.28238,0.22864,-0.068111,0.060191,0.019251,-0.018087,-0.13607,0.0099141,0.13344,-0.09322,-0.088518,0.071261,0.10527,-0.04667,-0.0511,0.016609,-0.15952,-0.070172,0.10909,-0.043407,-0.0712,0.0048828,-0.098051,-0.010511,0.01967,-0.083857,0.027964,-0.046007,-0.081871,-0.026235,0.064367,-0.013525,-0.13431,0.2045,0.12307,-0.059744,0.26394,0.16966,-0.24514,-0.25266,-0.093041,-0.067481,-0.078372,-0.015853,0.018576,0.031301,-0.11869,-0.0012599,0.11328,-0.011272,0.0013142,-0.051259,0.043056,-0.13822,0.012223,0.35446,-0.34423
0.72519,0.38239,0.62986,0.69696,-0.1964,-0.8347,-0.73936,-0.7861,-0.27593,0.48595,0.17404,-0.22142,0.048569,0.10099,-0.0050252,-0.21,-0.46736,-0.098617,0.057417,-0.19182,0.040913,0.11411,-0.12752,-0.13525,-0.037821,-0.015376,-0.20069,-0.30565,-0.077808,-0.10402,-0.28742,-0.043884,-0.18831,-0.41816,0.1114,0.13465,-0.062562,0.19956,0.14782,0.22773,0.26036,0.18207,0.52611,0.36093,0.052265,0.32979,0.27699,-0.019372,0.14513,0.30915,0.0051444,-0.13541,0.13456,0.085084,-0.070491,0.058746,-0.03635,-0.18973,-0.067567,0.032693,0.017708,-0.048926,-0.066444,-0.034109,-0.034453,0.045559,0.086355,-0.025103,-0.005034,0.10784,0.036551,-0.015351,0.12706,0.24683,0.21896,0.00029618,-0.2766,-0.084291,0.14292,-0.33289,-0.38301,0.082836,-0.099688,-0.074507,0.17895,-0.18409,-0.20036,0.040336,-0.23266,-0.049359,0.40002,0.043851,-0.16503,0.11763,0.10795,-0.32692
0.098357,0.31814,0.56239,0.60502,0.3996,-0.077842,-0.58409,-0.65683,-0.68958,-0.29693,0.3599,-0.12683,-0.37774,0.15557,0.063164,-0.10485,-0.45855,-0.47984,0.29386,0.010149,-0.37837,0.20428,-0.034269,-0.32569,0.084069,-0.09384,-0.29132,-0.26116,-0.0029141,0.30615,-0.23012,-0.38928,0.074628,0.059013,0.14584,-0.0079188,-0.3472,0.31821,0.50731,0.059769,0.27948,0.29628,0.21691,0.27346,0.14919,0.12135,0.062043,0.086368,0.13627,0.13369,0.12266,-0.015739,-0.02237,0.044242,-0.027618,-0.035173,0.040371,-0.046163,-0.052727,0.21088,0.051873,-0.22222,0.041328,0.11985,0.0016054,0.040969,-0.0074549,-0.020983,0.043305,0.067346,0.022146,-0.012685,0.096904,0.11671,-0.035046,0.0097372,0.10448,-0.10719,-0.17478,0.0048643,-0.11705,-0.20058,0.026769,0.014495,-0.068438,0.024351,-0.060313,-0.041282,0.054213,-0.097468,-0.044207,0.048188,-0.015094,0.085077,0.049401,-0.44967
-0.048357,0.73493,-0.12384,-0.51419,-0.41489,-0.5311,-0.086693,0.011733,-0.040051,-0.12871,0.14009,0.18354,-0.21923,0.13426,0.17048,-0.036993,-0.058772,0.054454,0.086095,-0.16904,0.02037,0.050558,-0.016072,-0.046937,-0.065404,0.085492,0.17389,0.17379,0.11607,0.31933,0.30448,0.13025,0.18546,0.25757,0.25519,-0.11103,-0.0060766,0.1179,-0.15292,-0.00033184,-0.29033,0.0016371,0.070035,-0.2195,0.10492,-0.11743,0.20278,0.17633,-0.1131,0.2535,0.036378,-0.069186,0.10067,0.12084,0.075639,-0.10054,0.10802,0.058432,-0.1978,0.034201,0.096535,-0.013177,-0.071092,-0.011385,-0.05938,0.040257,0.40713,0.044535,0.080581,-0.16991,-0.4096,-0.0011187,-0.17641,0.00094456,-0.028161,-0.10368,-0.0088242,-0.052666,0.11374,-0.022053,-0.10622,0.012316,0.14438,0.023844,-0.13974,0.11753,-0.11168,-0.048856,0.28851,0.45692,1.4821,1.0645,-0.33814,-1.1252,-1.6909,-1.1729
1.0571,2.0129,-0.52046,-1.2315,-1.0048,-1.6531,0.72755,0.98819,-0.27672,0.067352,-0.077365,-0.37078,-0.7013,-0.41723,0.18251,-0.2879,-0.17577,0.12498,-0.19325,0.00047672,-0.05701,-0.20707,-0.12396,0.14204,-0.1083,-0.30616,0.15897,0.023007,-0.22147,-0.19905,0.23776,0.23278,-0.22528,0.26476,0.33886,0.27149,0.55285,0.1884,0.24701,0.4701,-0.063857,0.14264,0.45475,-0.19072,0.017845,0.097128,-0.16314,-0.056337,-0.028284,0.040573,-0.25788,0.13769,-0.085074,-0.26586,0.31667,-0.040741,-0.18165,0.1153,-0.013826,-0.20591,0.11129,-0.033267,-0.17069,0.18113,-0.21353,-0.19212,0.26142,-0.086041,-0.21137,-0.061006,0.21494,0.053968,0.20889,0.33087,-0.23451,-0.0015178,-0.26003,-0.13021,0.026539,-0.51937,0.062727,-0.0052696,-0.14194,0.12533,-0.15715,0.18869,-0.2039,-0.17094,0.40243,-0.24601,0.115,0.084359,-0.45456,0.19792,0.42131,-0.43152
0.46124,0.080542,0.21444,0.6416,0.72201,0.21516,-0.22415,-0.16966,-0.092477,-0.37184,-0.64107,-0.60711,-0.41433,-0.088374,0.28194,0.219,-0.27285,-0.41036,0.042064,0.32206,0.031935,-0.25649,-0.1143,0.08042,-0.073482,-0.27049,-0.11174,0.13675,0.057494,-0.18377,-0.22195,-0.1085,-0.023707,0.034772,0.015601,-0.16567,-0.31234,-0.16383,0.083212,0.0020761,-0.30575,-0.27785,0.12885,0.28201,-0.010605,-0.17269,0.05292,0.22196,0.10017,-0.017323,0.051786,0.15642,0.19517,0.21125,0.20357,0.14743,0.10957,0.14671,0.15211,0.039001,-0.04707,0.059557,0.21305,0.15527,-0.02503,-0.027164,0.14091,0.15656,-0.02825,-0.088257,0.040777,0.052443,-0.081903,-0.037037,0.18026,0.19588,-0.020529,-0.10758,0.010591,0.010098,-0.1714,-0.15809,0.097726,0.11594,-0.15676,-0.1545,0.17125,0.22732,-0.021684,-0.099119,-0.019939,-0.011914,0.058263,0.08508,-0.16491,-0.67215
3.5997,-0.35374,-0.26632,-1.0234,-1.7187,0.86216,0.60131,-0.54476,0.13134,-0.27474,-0.71747,-0.56511,-0.10964,0.0207,-0.24128,-0.072986,-0.037921,-0.081636,-0.073921,-0.18459,-0.01229,0.042518,-0.1374,-0.22643,-0.077711,-0.030431,-0.25803,-0.064565,0.047569,-0.12728,-0.067384,0.1002,0.32266,0.25511,0.21324,0.41337,0.38722,0.35746,0.26516,0.12009,0.23962,0.18261,0.022721,-0.015041,-0.051071,-0.042347,-0.082711,-0.014364,-0.068893,-0.089988,0.1686,0.00090641,-0.1596,-0.020167,0.0074534,0.032527,-0.074489,-0.061321,0.037061,-0.072493,-0.055103,0.0099671,-0.020954,-0.11868,-0.1301,0.059076,0.020728,-0.09557,-0.030115,0.046739,-0.0075716,-0.086329,0.051925,0.14964,0.16595,0.085972,0.0024297,-0.069568,-0.21188,-0.10429,-0.13834,-0.086986,-0.04482,-0.19703,0.10709,0.12567,-0.14523,-0.050564,0.11709,0.024047,-0.095612,0.05889,0.054891,-0.049696,0.026528,0.15464
0.54158,2.2827,-0.29903,-0.66262,-0.47457,-2.2733,0.00066583,1.1501,-0.44463,-0.40984,0.49529,-0.24314,-0.60004,-0.25121,-0.3614,0.43404,-0.094955,-0.46631,0.22373,-0.15757,-0.14583,0.11354,-0.13815,-0.17327,-0.17892,-0.10733,0.15066,-0.017501,-0.21456,-0.097807,0.045493,0.22142,0.30233,0.23059,0.1815,0.3507,0.4066,0.31285,0.4573,0.31127,-0.19766,0.36838,-0.0398,-0.11106,0.55168,-0.3745,-0.13735,0.0039965,-0.091174,0.2168,-0.13714,-0.096889,-0.26142,0.12134,0.29089,-0.25586,-0.013562,-0.053851,-0.072219,0.15825,0.0011748,-0.15316,-0.039357,-0.020241,-0.089714,0.051887,-0.064237,-0.15944,-0.06583,0.068241,-0.023022,-8.635e-05,0.2212,0.17347,0.34317,-0.12133,-0.40949,0.061972,-0.014548,-0.22454,-0.30736,-0.02415,0.032727,0.024948,-0.0098099,-0.090088,0.015863,-0.016826,0.036036,-0.061637,0.15583,-0.081789,-0.10921,0.21143,-0.032172,-0.22889
0.57796,1.9952,0.11264,-0.83162,-0.93205,-1.9481,0.27216,1.3897,-0.40988,-0.11386,0.35388,-0.60788,-0.80915,-0.17026,-0.10664,-0.19966,-0.072092,-0.0096974,-0.053732,-0.11072,-0.018267,-0.036984,-0.098935,-0.25455,-0.039914,0.09908,-0.24261,-0.22495,-0.06799,0.069261,0.11692,0.038203,-0.0053303,0.23236,0.36502,0.2117,0.40246,0.2758,0.29755,0.27751,0.018074,0.53922,0.15633,-0.27558,0.13445,-0.054219,0.00121,0.011908,-0.10724,-0.010866,-0.17049,0.012248,0.2289,-0.0089615,-0.30139,0.0045071,0.33849,-0.292,-0.1266,0.43488,0.019204,-0.30164,-0.30417,0.060563,0.074737,-0.11241,-0.046225,-0.062046,0.13544,-0.14129,0.015547,0.18841,0.10691,0.30341,-0.0015271,-0.23639,-0.57084,-0.13934,0.28813,-0.11244,-0.23147,-0.11039,0.17702,-0.18684,-0.064728,0.22665,-0.2263,-0.098782,-0.11053,0.27018,0.15624,-0.51609,0.11754,0.19399,-0.14551,0.8869
1.0879,0.0022342,-0.25436,0.073562,0.32794,-0.088021,-0.7695,-0.84985,-0.51792,-0.29834,-0.13192,-0.033804,-0.081834,-0.0812,-0.017637,-0.062262,-0.085443,0.013334,0.012943,-0.039388,0.02676,-0.00031049,-0.048469,0.010101,-0.060326,-0.058985,-0.00981,-0.086247,0.067156,0.084433,-0.15753,0.0018851,0.17665,0.028133,0.073513,0.20641,0.15392,0.18352,0.2062,0.15728,0.26266,0.16588,0.022846,0.17449,0.01995,-0.14674,0.10137,0.1075,0.025613,0.1386,-0.075372,-0.2257,0.10816,0.078006,-0.13446,0.098065,0.050186,-0.095197,0.10055,0.036104,-0.014921,0.10867,-0.083766,-0.04662,0.29964,0.05046,-0.14186,0.23029,0.048501,-0.24303,-0.04198,-0.091814,0.0047115,0.2477,0.065,-0.098457,-0.13798,-0.076167,-0.11029,-0.18991,0.14411,0.050971,-0.19338,0.14924,-0.055828,-0.16526,0.35494,0.11174,0.10806,0.98016,0.78075,-0.22788,-0.34,-0.28646,-0.68814,-1.0445
0.17158,0.71157,0.77259,0.24842,-0.23154,-0.13523,-0.2293,-0.66649,-0.75605,-0.50527,-0.15774,0.18671,0.098641,-0.24912,-0.19687,0.0029035,0.010811,0.107,0.094997,-0.2152,-0.30005,-0.081886,0.041298,0.067189,-0.028671,-0.25019,-0.20339,0.020174,-0.058898,-0.21321,-0.10969,-0.032721,-0.11018,-0.10617,-0.022583,0.0057942,-0.009823,-0.007114,0.063193,0.14922,0.13278,0.046981,0.0069738,0.066609,0.25078,0.41555,0.29274,-0.032623,-0.086934,0.21883,0.32163,0.054558,-0.010314,0.15215,0.055382,-0.019753,0.16187,0.021393,-0.27768,0.0016415,0.33746,0.012196,-0.2812,0.045179,0.27811,-0.024979,-0.18885,0.053635,0.099656,-0.068309,0.0095333,0.1363,0.071777,-0.0097708,-0.069957,-0.0078422,0.12893,-0.042407,-0.13435,0.25653,0.2916,-0.11092,-0.0034465,0.15941,-0.18291,-0.17829,0.11733,-0.074017,-0.18127,0.1393,0.13784,-0.1032,0.002246,0.085214,-0.14202,-0.50425
-0.53036,-0.047057,0.018579,-0.046175,0.13604,0.20916,-0.10657,-0.34251,-0.24461,0.073778,0.20607,-0.14089,-0.25482,0.16813,0.058371,-0.46149,-0.18676,0.3053,-0.063689,-0.49129,-0.058372,0.065761,-0.29443,0.16379,0.18238,-0.41822,0.1048,0.48076,0.0073488,0.0071003,0.338,0.38732,0.22407,0.25969,0.45699,0.13514,-0.18532,0.26953,0.29855,-0.24133,-0.027322,0.23419,0.0067556,0.0052894,-0.056942,-0.13044,0.14187,0.041452,-0.24332,0.030881,0.18285,-0.030031,-0.093689,-0.0075553,0.090747,0.019911,0.0070047,0.10819,0.023257,0.053025,0.16304,0.10267,0.050675,0.06605,0.11245,0.03763,-0.073169,-0.10219,-0.1984,-0.16942,-0.12044,-0.07292,0.106,0.050916,-0.031774,-0.23996,-0.34473,0.16653,0.15359,-0.077208,0.1396,-0.15716,-0.2191,0.20745,0.027723,0.033182,0.41075,0.33558,0.64059,0.76567,-0.37111,-0.91168,-0.61275,-0.76671,-0.55816,0.83122
1.019,1.1261,0.12671,-0.17838,-1.1426,-1.3048,1.0958,0.23192,-0.76636,0.42443,-0.44963,-0.7488,-0.017033,-0.088914,-0.080814,-0.075936,-0.082014,-0.031167,-0.010594,-0.097684,-0.080929,0.0092656,-0.11537,-0.15382,-0.030311,-0.025267,-0.1468,-0.079294,0.055169,-0.10817,-0.089826,0.21866,0.17402,0.10679,0.33887,0.37424,0.355,0.34782,0.29818,0.31835,0.14248,0.074146,0.16059,-0.0078782,-0.10939,-0.030572,0.091006,-0.11566,-0.1902,0.17499,0.040369,-0.05063,0.061698,-0.010616,-0.0051149,0.043362,0.0048211,-0.085253,-0.081816,0.039694,0.073752,-0.1248,-0.06232,0.11561,0.0348,-0.069883,-0.078008,0.021604,-0.0016151,-0.016781,0.12642,0.020093,-0.13874,0.16761,0.25253,0.11839,0.12461,-0.12381,-0.060869,-0.071421,-0.1772,0.056143,-0.010067,-0.26108,-0.016835,0.32832,-0.11228,-0.19571,0.109,0.1162,-0.045594,-0.046409,0.19004,-0.088704,-0.19816,0.60528
1.1055,0.58947,1.7898,0.43817,-1.843,-1.7517,-1.2723,0.47021,0.77377,0.13029,-0.31394,-0.38363,0.61765,-0.15367,-0.25797,0.10876,-0.63653,-0.084224,0.17349,-0.20944,-0.075202,-0.13608,-0.12415,-0.021399,-0.17383,-0.12424,0.0045311,-0.059598,-0.29788,0.11024,-0.12723,-0.027282,0.28048,-0.12339,0.33426,0.11934,0.39044,0.31482,0.095197,0.54255,0.044154,0.16396,0.49251,0.15291,0.22567,-0.14489,-0.074188,0.27758,-0.32753,0.047475,-0.033894,-0.1706,0.26142,-0.36375,-0.16462,0.3755,0.052985,-0.4499,0.69059,-0.04416,-1.1773,0.74527,-0.12094,-0.25628,0.42993,-0.48975,0.16774,0.074113,-0.29265,0.24882,0.09135,-0.17535,0.23731,0.65373,-0.31608,-0.19677,0.3636,-0.66905,-0.23695,0.023506,-0.071841,-0.080949,-0.22193,-0.14561,0.12409,0.36756,-0.13764,-0.26984,0.1116,0.22813,-0.16301,-0.043908,0.029879,0.12532,0.16927,-0.8077
2.4383,0.57751,-0.87991,-1.8781,0.30058,0.61089,-0.39986,0.29763,-1.3153,-0.90239,0.0063707,-0.29622,-0.032412,-0.042852,-0.14202,-0.17523,0.05452,-0.074283,-0.033549,0.031364,-0.11914,0.12555,0.098933,0.07245,0.071394,0.23297,0.34529,0.25361,0.53036,0.52192,0.36054,0.39932,0.2602,0.20895,0.18599,-0.019064,-0.13973,-0.088641,-0.1045,-0.23848,-0.12914,-0.087105,-0.028986,-0.12593,-0.065429,-0.070967,-0.16235,0.040093,-0.1152,0.0019452,-0.015477,-0.10267,0.0137,0.026609,-0.097927,-0.129,0.10757,-0.034754,-0.11663,0.039364,0.062844,-0.064399,-0.10724,0.14018,-0.091663,-0.059595,0.19142,-0.15444,-0.049305,0.1212,-0.0032743,-0.045957,0.049274,0.0033324,-0.042647,0.049034,-0.02911,0.11958,0.22029,0.11761,-0.15741,-0.026454,-0.076903,-0.34789,-0.0026447,-0.070347,0.0267,0.023916,-0.05499,-0.019384,0.10319,0.078399,-0.063417,0.072136,0.020093,0.19393
-0.217,1.5537,0.93076,-0.64279,-2.064,-0.98052,1.2629,0.3146,-0.15409,0.13297,-0.81517,-0.66253,-0.10959,-0.16123,-0.093237,-0.029851,-0.14539,0.022782,-0.036364,-0.1427,-0.04039,-0.14647,-0.046334,-0.10132,-0.20182,0.0011519,-0.081927,-0.19376,-0.095632,-0.034034,-0.036162,0.059422,0.24332,0.27332,0.29031,0.41155,0.44387,0.43337,0.3756,0.26494,0.21393,0.053675,-0.022122,0.082016,-0.087657,-0.17221,0.01356,0.021884,-0.048221,-0.024504,0.032933,0.033206,0.032423,-0.020597,-0.04894,0.027046,-0.010668,-0.013213,-0.054005,0.032841,-0.015855,-0.1721,0.067734,-0.036494,-0.093588,0.032488,-0.08549,-0.025822,0.035762,-0.076815,-0.094742,0.0305,-0.02811,0.027486,0.27842,0.19161,-0.051987,-0.13993,-0.066969,-0.10529,-0.21119,-0.11268,0.03123,-0.031593,-0.1183,0.098304,0.03831,-0.10852,0.065811,0.031359,-0.045552,-0.053516,0.08412,0.1178,-0.080318,-0.1128
0.41596,-0.31981,-0.12992,-0.22507,-0.37809,0.016685,-0.30853,-0.25037,0.15134,-0.14908,-0.085173,-0.16394,-0.17505,0.031611,-0.20314,-0.083944,0.00053312,-0.30108,-0.28011,-0.13931,0.023169,-0.10546,-0.1518,0.1363,-0.14205,0.35455,0.54544,0.16671,0.56184,0.31989,0.29283,0.44656,0.21479,0.33224,-0.11806,-0.10495,0.31698,-0.22456,-0.076651,0.13856,-0.1173,-0.025259,0.038076,0.023638,0.04257,-0.17415,0.08973,0.17965,-0.24156,0.097511,-0.073766,-0.10308,0.19755,-0.049346,-0.33973,0.039708,0.24847,-0.18558,0.17037,-0.17596,-0.10343,0.44413,-0.44903,-0.03191,0.29951,-0.30138,0.20978,0.22498,-0.005192,0.32924,-0.10829,-0.51398,0.14482,0.018716,-0.34878,0.20078,-0.085751,-0.2269,0.28328,-0.16871,-0.070568,0.32998,-0.34391,0.071731,0.21581,-0.1821,-0.0039753,0.014704,0.13059,0.21754,1.3696,0.70026,-0.78049,-0.56409,-0.83075,-1.7324
1.3803,0.61779,-0.10645,-0.76202,-1.1603,-0.050113,0.87065,-0.033863,-0.017617,0.20366,-0.59721,-0.90792,-0.40037,-0.013282,-0.12349,-0.11594,-0.080071,-0.062381,-0.14586,-0.14853,-0.020755,-0.13567,-0.18458,-0.25772,-0.20154,-0.069501,-0.22829,-0.1427,-0.0038791,0.066219,0.19005,0.19888,0.27545,0.3903,0.37009,0.30992,0.32951,0.28427,0.24346,0.16809,0.071203,0.041252,0.069941,0.0024418,-0.047447,0.020874,-0.051011,-0.030443,0.027308,0.016447,0.035509,-0.022644,0.0093415,0.076813,-0.05107,-0.000661,0.045906,-0.039865,0.014559,-0.056182,-0.061929,0.076756,-0.058404,-0.081149,0.043094,-0.065668,0.017823,-0.026178,-0.071235,0.069314,-0.010201,0.09056,0.1524,0.051668,0.048034,-0.1528,-0.16044,0.0033218,-0.14209,-0.12342,-0.023911,0.033034,-0.013241,-0.030839,0.009823,-0.024825,0.02615,0.015279,-0.076326,0.039706,0.049266,-0.066459,0.0093279,0.0568,0.17776,0.39413
0.24202,0.27436,0.29652,0.14421,-0.1228,-0.095418,0.13593,0.031106,-0.46326,-0.72206,-0.32987,0.20719,0.12149,-0.34824,-0.32536,0.12962,0.24584,0.010311,-0.13067,-0.16972,-0.12125,0.019322,0.058747,0.16393,0.33947,-0.024131,-0.57749,-0.28779,0.243,-0.0088677,-0.2271,0.2948,0.49521,-0.15547,-0.49632,-0.006778,0.26132,-0.12042,-0.29232,-0.1019,-0.15893,-0.19427,0.11992,0.17563,-0.085069,-0.0043137,0.24837,0.19222,0.092772,0.17458,0.18485,0.085001,0.10193,0.22195,0.23451,0.15019,0.11509,0.083289,0.057777,0.12304,0.076566,-0.12131,-0.10236,0.057836,-0.014608,-0.088649,0.063024,0.049645,-0.19257,-0.15387,0.14093,0.10579,-0.19942,-0.11278,0.24828,0.19819,-0.075541,-0.095205,-0.090667,-0.079212,0.14603,0.096062,-0.21364,-0.0047315,0.29177,0.017612,0.0017469,0.48862,0.63979,0.66355,0.75145,0.19956,-0.47604,-0.557,-0.71454,-1.4797
-0.80221,0.51841,-0.30579,-0.13732,0.10098,-0.80476,0.72271,0.19273,-1.1288,0.076385,0.26853,0.18432,-0.66419,0.10039,0.60574,-0.58485,-0.20854,-0.26542,0.25405,-0.049155,-1.0748,0.61216,0.62708,-1.3581,-0.55434,0.53038,0.0088986,-0.43365,-0.078945,0.32082,0.1011,-0.063218,0.20443,0.63693,0.23037,-0.18641,0.60499,0.89614,0.12671,-0.044262,0.32801,0.19851,0.015365,0.19005,0.15518,-0.27394,-0.18711,0.43861,-0.027064,-0.59999,0.17106,0.37169,-0.2498,-0.20637,0.056695,0.19608,0.11056,-0.27411,0.084126,0.31672,-0.26087,-0.24539,-0.064582,0.05892,0.19189,0.084275,-0.033648,-0.38524,-0.071039,0.27637,0.23058,-0.49337,-0.25371,0.68765,-0.27394,-0.16621,-0.049512,0.07266,0.49079,-0.70881,-0.016404,0.39361,-0.21465,0.020636,0.056913,0.49757,-0.016059,-0.20397,0.043985,-0.37261,0.26598,0.019276,-0.6362,0.20521,0.34658,-1.2522
1.3705,1.4598,0.45884,-0.25881,-1.0589,-2.1508,-0.19719,1.4716,-0.15659,-0.23031,0.49759,-0.33383,-0.83663,-0.21285,-0.1577,-0.19258,-0.091831,-0.14877,0.14241,-0.11429,-0.022897,-0.0032145,-0.16196,-0.15391,-0.1631,0.018333,0.043892,-0.16276,-0.23463,-0.01363,0.16971,-0.044006,0.13912,0.36966,0.034891,0.20291,0.48122,0.49033,0.30019,0.15313,0.26795,0.34111,0.10564,-0.013535,0.075132,0.068927,-0.031151,-0.09152,-0.043977,-0.10468,-0.020761,-0.090713,0.045446,0.077733,-0.15012,-0.095423,-0.026262,0.16911,0.031593,-0.12755,-0.075094,0.00068759,0.17136,-0.14836,-0.24993,0.0027074,0.072797,0.057972,-0.21048,0.013031,0.29741,-0.089659,-0.038959,0.26486,0.10356,-0.15569,-0.23704,-0.12431,-0.036917,-0.096479,-0.24402,-0.061321,0.15391,-0.089573,0.0648,0.055088,-0.22394,0.041175,0.019589,0.077408,0.013398,0.052663,0.12436,-0.21109,0.10197,1.157
-0.29897,1.7081,1.4376,-0.51308,-2.0001,-1.7258,0.33821,1.1849,-0.012797,-0.070977,0.031302,-0.51742,-0.93134,0.19235,0.10025,-0.43179,0.0031396,0.072945,0.26545,-0.24143,-0.20411,-0.27498,0.036904,0.17819,-0.099274,-0.16185,-0.32636,0.097963,0.30006,-0.13239,-0.33145,0.16428,0.3797,0.096545,0.13417,0.44526,0.4353,0.27735,0.32066,0.22086,0.57077,0.13371,-0.25635,0.27884,0.061392,-0.068115,0.024332,-0.067638,-0.11746,0.016961,0.019054,-0.26535,-0.015879,0.30894,-0.33487,0.0006087,0.050974,-0.50468,0.48057,0.38295,-0.6066,-0.18866,0.35239,-0.25006,-0.092013,0.29599,-0.29818,0.12326,-0.08941,-0.22453,0.26843,-0.28949,0.15967,0.24362,0.12604,0.077731,-0.14508,0.17455,-0.55329,-0.098285,0.22689,-0.24007,-0.05278,-0.12204,0.07999,-0.08729,0.015447,0.29778,-0.14614,-0.072979,0.067537,-0.095147,0.15665,-0.032526,-0.15499,0.70172
0.65904,2.2314,-0.24825,-1.0423,-0.64528,-2.1274,-0.24676,1.6265,-0.12432,-0.68861,0.5209,-0.44836,-0.78774,0.11081,-0.10748,-0.10816,-0.29786,0.028661,0.056618,-0.25324,0.14007,-0.049291,-0.17626,-0.11523,-0.21785,-0.031128,-0.0072111,-0.10937,0.14171,-0.037229,-0.12887,0.15246,0.12047,0.36636,0.22752,0.14644,0.37019,0.36536,0.37817,0.13895,0.19644,0.25179,0.13548,0.09388,-0.20144,0.16531,0.066082,-0.39875,0.15281,-0.05768,-0.31171,0.13769,0.035452,-0.066052,-0.055424,0.098809,0.076422,-0.18308,-0.0090845,0.24727,-0.24416,-0.13547,0.29208,-0.39074,0.032809,0.17472,-0.28261,0.1047,-0.081774,-0.087475,0.012031,-0.00050883,0.27858,0.18969,-0.1899,0.10203,0.046188,-0.57176,-0.075487,0.021577,-0.10171,-0.092262,0.0071337,-0.034672,0.1194,0.00047498,-0.43381,0.31684,0.012591,-0.23226,0.13009,-0.074004,-0.0073166,0.033041,0.085563,0.58636
2.1088,0.97695,0.073431,-1.5125,-1.2762,0.77899,0.11551,-0.44192,0.18737,-0.60943,-0.83655,-0.10279,-0.070103,-0.25236,-0.03644,-0.030181,-0.11919,-0.10984,-0.073034,-0.070235,-0.13324,-0.10082,-0.067779,-0.037673,-0.21767,-0.049351,-0.028344,-0.30138,0.11362,0.07989,0.025744,0.11737,0.15248,0.46377,0.3224,0.29675,0.38515,0.4084,0.20028,0.13116,0.19786,0.047489,-0.027298,0.051879,0.0035804,-0.2084,-0.01014,0.024349,-0.038522,-0.020805,-0.073367,0.094973,-0.0084292,-0.066004,0.042987,-0.050687,-0.016935,-0.053309,0.0017356,-0.043034,-0.094329,0.10134,-0.013669,-0.093429,-0.061866,0.019079,0.06918,-0.09526,-0.095177,0.060614,0.00080889,-0.095294,0.085856,0.26179,0.1572,-0.024913,-0.11046,-0.17487,-0.17637,-0.074065,0.022025,-0.11602,-0.10575,-0.0043288,0.068892,-0.15219,-0.11834,0.21196,-0.026538,-0.071286,0.002211,0.11372,-0.081202,-0.10941,0.31823,0.24828
-0.58708,1.143,1.9858,-0.22537,-1.3937,-1.0503,-1.433,0.55114,0.88067,-0.27286,-0.21318,0.20385,-0.48124,-0.63018,0.010553,-0.19049,-0.13758,0.0091776,0.033923,-0.10929,-0.086887,-0.035545,-0.085961,-0.16596,-0.072904,-0.0028324,0.030154,-0.25526,-0.15214,0.18857,-0.1042,-0.055726,0.15933,0.34597,0.16699,0.22732,0.63526,0.26588,0.29736,0.34897,0.23648,0.28756,-0.039643,0.032842,0.15759,-0.048181,-0.073531,-0.042879,-0.13236,-0.06001,-0.034543,-0.033394,0.066707,-0.081307,-0.099043,0.024364,0.0044814,0.040114,-0.11421,0.002766,0.087198,-0.11824,0.010126,-0.068965,-0.02788,0.11794,-0.039084,-0.17832,-0.046097,0.2112,-0.23114,0.030971,0.52504,-0.05071,0.027033,-0.009579,-0.2629,-0.063273,-0.16373,-0.051761,0.017008,-0.12009,-0.15805,0.03888,0.2436,-0.053909,-0.11076,-0.01746,-0.050797,0.16761,-0.13392,-0.19198,0.31265,0.036672,-0.21168,0.53743
0.17784,1.0602,1.9731,0.12632,-1.7239,-1.3272,-1.3113,0.23341,1.0985,-0.00059103,-0.46926,-0.0269,-0.0067682,-0.49908,-0.29834,-0.12571,-0.1223,-0.087207,0.034717,0.017909,-0.37229,0.094382,0.23493,-0.44192,-0.14342,0.078302,-0.24409,-0.097206,-0.054027,-0.13267,-0.10831,0.060553,0.096057,0.17994,0.18628,0.093315,0.40664,0.22203,0.45915,0.38534,-0.16652,0.24198,0.50506,-0.073666,0.051207,0.28344,-0.028477,0.10598,-0.1462,-0.11921,0.063332,-0.0805,-0.15559,0.044515,0.0044052,-0.13602,-0.049918,0.086246,-0.0085292,-0.010501,0.11148,-0.31389,0.2168,0.11263,-0.57061,0.31588,0.015914,-0.497,0.15409,0.027205,-0.10277,0.02604,0.054095,0.31256,0.30541,-0.088608,-0.26335,-0.17613,-0.10328,-0.015022,-0.095533,-0.26439,0.024638,0.0030497,-0.20512,0.23599,-0.17498,0.0018438,0.051993,-0.17616,0.63768,-0.42659,-0.29816,0.34168,-0.30421,0.67339
0.51404,-0.30558,0.36206,-0.20436,-1.8007,-0.95365,-0.090602,-0.2449,-0.14465,-0.18305,-0.0047463,-0.0061878,-0.17371,-0.083062,0.03765,-0.061422,-0.082359,-0.085128,-0.011567,-0.068131,-0.13326,0.13349,0.048111,0.092171,0.12241,0.13788,0.32086,0.27188,0.37596,0.47047,0.38744,0.21669,0.10126,0.1039,0.035832,0.074001,0.10522,-0.0094579,-0.05222,-0.095879,-0.10292,-0.065435,-0.030816,-0.040083,0.0035483,-0.011256,-0.12682,0.04117,0.069464,-0.10483,0.0043429,0.099278,0.012273,0.093003,0.16521,0.050065,0.04505,-0.10551,-0.073617,0.084735,0.039414,-0.0098293,-0.17742,-0.12855,-0.18938,-0.20601,-0.10247,-0.046096,0.062684,-0.03207,-0.061061,-0.052941,0.077818,0.022296,-0.076514,0.0053452,0.070443,-0.0046288,-0.078816,0.038974,0.01296,0.0082598,-0.044548,0.0019276,0.13372,0.079169,-0.029794,-0.02676,0.10287,0.13165,-0.022704,0.25558,0.34757,-0.054756,0.12036,1.0455
0.83106,0.31188,0.035871,0.14095,-0.70035,-1.3306,-0.30869,-0.013781,0.060066,0.098661,-0.31131,-0.12424,-0.15522,-0.083968,0.082112,-0.24468,0.0022192,0.057822,-0.27713,0.09358,-0.020978,-0.029617,0.17684,-0.32317,0.035688,0.18868,0.1823,0.48847,0.054051,0.059856,0.49468,0.37454,0.17652,0.2738,0.071476,0.15718,0.27639,-0.074963,0.10426,-0.058325,-0.27533,0.11181,0.051061,0.17903,-0.48899,0.050768,0.6017,-0.63045,-0.17903,0.20939,0.1657,-0.043437,-0.033109,-0.060073,-0.036887,0.071744,-0.22914,0.099693,-0.071515,0.22715,0.059431,-0.49075,-0.013927,-0.0085581,0.28572,0.35049,0.26179,-0.15057,-0.66175,0.11514,0.019245,-0.41885,0.39962,-0.068613,-0.60307,0.12424,0.1354,0.14989,-0.19099,-0.17343,0.11601,0.055031,0.0091938,-0.21332,-0.052214,0.29207,-0.13091,0.20039,0.93788,0.97919,0.93503,-0.16855,-1.654,-2.092,-0.48067,3.4377
1.5082,1.7013,-0.34566,-1.2792,-1.1261,-0.62962,0.91784,0.36246,-0.37971,-0.0032375,-0.25709,-0.82542,-0.51544,-0.011655,-0.0767,-0.044576,-0.15989,-0.072863,0.00018405,-0.14298,-0.11459,-0.015067,-0.016711,-0.16495,-0.17431,-0.026284,-0.054254,-0.25042,-0.079398,0.002715,-0.080981,0.022326,0.024095,0.20634,0.22386,0.26132,0.43556,0.30908,0.29408,0.3961,0.30745,0.040749,0.075535,0.22271,-0.026508,-0.05371,0.0020143,-0.050156,-0.042328,-0.10685,0.025469,0.063333,-0.090429,-0.055639,0.07128,-0.056341,-0.057417,0.064755,-0.018135,-0.064442,-0.030141,0.015481,-0.012551,-0.041108,-0.074866,0.050143,-0.028172,-0.14189,0.094643,-0.0068013,-0.13749,0.012713,0.04941,0.059168,0.15674,0.17071,0.070416,-0.087076,-0.2406,-0.07726,-0.059855,-0.2221,-0.054467,-0.001619,-0.088965,0.055981,0.0060134,-0.087736,0.019302,-0.070649,0.053819,0.052583,-0.12609,-0.00020509,0.060057,-0.070941
1.1547,-0.051084,-0.43567,-0.52121,-0.56506,-0.51167,-0.20859,0.19133,0.078143,-0.26573,-0.11854,0.25581,0.15826,-0.086073,-0.22493,-0.3857,-0.23728,0.11367,0.048705,-0.16966,-0.029217,0.097824,-0.069192,-0.099033,0.054919,-0.015925,-0.13576,-0.096341,-0.13989,-0.0899,0.092937,-0.044513,-0.20966,-0.061113,-0.026517,-0.074309,0.022363,0.011141,-0.0027949,0.10604,0.064688,0.017919,0.15626,0.20477,0.12827,0.1103,0.16279,0.24028,0.19871,0.085703,0.1431,0.17783,0.045993,0.073795,0.15979,0.016946,-0.028657,0.12257,0.067783,-0.10846,-0.042507,0.11252,0.054352,-0.084729,-0.040456,0.065178,-0.00066268,-0.066014,0.0019052,-0.016423,-0.020035,0.14051,0.085706,-0.12056,-0.019823,0.1362,0.1344,0.16245,0.068744,-0.039678,0.13368,0.21417,0.052798,0.042574,0.072503,-0.060678,-0.059417,0.074811,-0.059381,-0.21453,0.034378,0.26007,-0.25783,-0.78663,-0.4906,0.4357
-0.30614,1.2503,1.678,-0.18914,-2.1172,-1.7555,0.097301,1.1039,0.10852,-0.090988,0.032341,-0.34448,-0.78438,-0.16632,0.1062,-0.27881,-0.054495,-0.16278,0.25022,-0.048948,-0.39446,0.03454,-0.11571,-0.097901,-0.060281,-0.0063962,-0.023395,-0.31258,0.10556,0.12011,-0.40781,0.44768,0.18777,-0.16438,0.41768,0.19442,0.84427,0.051432,-0.066055,0.75008,0.25628,0.1372,0.065669,0.18229,-0.030266,-0.07626,-0.076787,-0.068659,0.078326,-0.20081,-0.067596,0.022776,0.11706,-0.1271,-0.18321,0.13987,0.045029,-0.09475,-0.15894,0.24728,0.039366,-0.27631,0.049892,-0.014536,-0.17316,0.0059146,0.10725,-0.15269,-0.062525,0.057015,0.053516,0.0056717,0.12114,0.46975,-0.10761,-0.24525,0.014572,-0.15616,0.020727,-0.19356,-0.22238,0.059312,-0.10906,0.28662,0.019499,-0.43481,0.10773,0.26418,-0.32094,0.057644,0.31762,-0.37613,0.12919,0.11157,-0.12319,1.5973
0.39344,0.61048,0.65459,0.31495,0.021908,-0.19245,-0.59087,-0.65686,-0.65116,-0.3257,0.26976,-0.18365,-0.48232,0.34012,0.26499,-0.34241,-0.19717,-0.21511,-0.23566,0.064527,-0.018406,-0.13906,0.044344,0.092826,-0.20282,-0.40378,0.047082,0.26264,-0.34204,-0.35354,0.17536,-0.02235,-0.30546,-0.16339,-0.047693,0.10746,0.14202,0.010565,0.070344,0.12719,0.12348,0.26866,0.37771,0.24781,-0.0094077,0.11605,0.47968,0.18483,-0.14511,0.24629,0.26366,-0.14057,-0.051275,0.063627,-0.014491,0.065723,0.058071,-0.063729,-0.097244,-0.050826,0.036462,0.043662,0.019917,0.015445,-0.044691,-0.0060771,0.038681,-0.034285,0.079885,0.17741,0.023454,0.076238,0.24271,0.12794,-0.0023467,-0.054197,-0.20155,-0.15192,0.064128,-0.053399,-0.083079,0.16886,-0.035979,-0.20959,0.013698,-0.089722,-0.077208,0.11071,-0.14262,-0.10615,0.1767,-0.035013,-0.10742,0.06826,-0.025911,-0.38173
0.23799,0.28856,0.47095,0.4909,0.15025,-0.27742,-0.48879,-0.57521,-0.56225,-0.20474,0.19854,0.12119,-0.18997,-0.16731,0.015429,0.083819,0.083771,-0.14568,-0.33808,-0.093724,0.038861,-0.089063,0.022955,0.021203,-0.22666,-0.12364,0.1128,0.053249,-0.043713,-0.098019,-0.21823,-0.19155,0.013428,0.050814,-0.12648,-0.18416,-0.075391,-0.031131,-0.024676,0.021548,-0.034896,-0.086693,0.11364,0.2927,0.18852,0.090749,0.10001,0.077584,0.15552,0.30731,0.29985,0.18525,0.12056,0.14398,0.1864,0.13746,0.085925,0.11643,0.07869,-0.021181,-0.027368,0.018431,0.049895,0.030936,-0.054026,-0.03738,0.040307,-0.001454,-0.011166,-0.017774,-0.082088,0.053978,0.076694,-0.17955,-0.030139,0.27014,0.049498,-0.12121,0.019128,0.01893,-0.011264,0.018441,0.065291,0.16896,0.0083242,-0.12044,0.19948,0.24784,-0.043845,-0.22018,-0.52569,-0.51587,-0.38313,-0.84167,-0.55902,1.6958
0.66019,1.9224,-0.49346,-0.94911,-0.45489,-1.8836,0.14418,1.3212,-0.43901,-0.26563,0.49805,-0.49614,-0.79659,0.030696,-0.068033,-0.11786,0.082287,-0.11434,-0.23805,-0.016906,0.18158,-0.12315,-0.29149,-0.022802,0.046895,-0.11747,-0.22023,-0.0044449,-0.0032072,-0.13875,-0.0038782,0.40105,0.16559,-0.15481,0.56619,0.33442,0.21698,0.418,0.11229,0.54208,0.12075,0.098237,0.11669,0.022672,0.19863,-0.41362,0.36664,-0.075343,-0.35977,0.38021,-0.45278,0.08395,0.1211,-0.1452,0.14356,-0.076539,-0.0045416,-0.062069,0.050207,-0.011846,0.23216,-0.1751,-0.35471,0.40738,-0.15007,-0.13147,0.12284,-0.25714,0.36035,-0.25685,-0.20051,0.38419,-0.23092,0.47896,0.084465,-0.21834,0.49563,-0.43872,-0.35754,0.14868,-0.23665,-0.14702,0.042979,0.03135,-0.08668,0.23213,0.066855,-0.38905,0.066434,0.25847,-0.09963,-0.055554,0.15453,0.048861,-0.071736,0.038057
0.45428,0.46239,0.3684,0.32491,0.34907,0.14938,-0.26968,-0.51158,-0.48689,-0.50596,-0.50642,-0.21458,0.08093,0.032854,-0.068845,0.060829,0.19153,0.091909,-0.13951,-0.31262,-0.31177,-0.12124,0.074152,0.048942,-0.10379,-0.11327,-0.010193,-0.019696,-0.10792,-0.11722,-0.071319,-0.056306,-0.10239,-0.1775,-0.17654,-0.11306,-0.064348,0.052992,0.1331,-0.044012,-0.14477,0.084288,0.1544,0.0040838,0.15491,0.33991,0.12374,0.0051468,0.23189,0.28277,0.08227,0.011541,0.12939,0.25258,0.19844,0.0021716,-0.014173,0.16143,0.16886,0.036181,0.026485,0.051746,0.038349,0.081268,0.060048,-0.059568,-0.048235,0.047781,0.02167,0.0054633,0.10206,0.081208,-0.081976,-0.085515,0.051376,-0.014705,-0.21365,-0.11635,0.222,0.26737,-0.0059773,-0.061394,0.076798,-0.059626,-0.2162,-0.011281,0.076697,-0.13763,-0.06834,0.16878,-0.015279,-0.23032,0.068035,0.25923,-0.080731,-0.74686
-0.55164,1.2255,0.022599,-0.72971,-1.072,-0.65798,0.25392,-0.6519,-0.14422,0.42645,-0.3323,-0.30843,-0.037182,-0.0060451,0.081941,-0.099135,-0.22997,-0.04783,-0.06714,-0.10526,-0.27588,-0.36441,-0.056912,0.27079,-0.25442,0.25082,0.6853,-0.19054,0.71975,0.33431,0.0015443,0.59543,0.028007,-0.11876,0.32737,0.25017,-0.36277,0.19462,0.11186,-0.19951,0.15363,0.13259,0.020938,-0.022995,0.17212,0.036497,-0.017189,0.26788,-0.041842,-0.12826,0.17077,0.0030014,-0.055368,-0.015232,-0.13035,-0.20691,0.40093,-0.10475,-0.28967,0.19294,0.024126,-0.21271,0.054174,0.11855,-0.1147,0.003742,-0.082486,0.095348,0.0083767,-0.078534,0.065442,0.033909,-0.038726,0.049715,0.065987,-0.21505,0.10745,0.32389,-0.079154,0.10571,-0.21176,0.025051,-0.072594,-0.27543,0.18664,-0.11339,-0.079613,-0.10145,0.26484,0.032928,-0.05418,-0.30596,-0.2047,0.48246,-0.055582,0.031206
-1.0243,0.97213,1.876,-0.23433,-1.1509,-0.88141,-1.1444,0.85339,0.65816,-0.22254,-0.023199,-0.027928,-0.66584,-1.0262,-0.010034,0.033648,-0.20984,-0.082503,-0.048795,0.062204,-0.17158,-0.16309,-0.059786,-0.090909,0.016797,-0.2296,-0.033006,0.03451,-0.12816,-0.047,-0.08371,0.18799,0.0082456,-0.050112,0.42884,0.33902,0.22478,0.35938,0.36247,0.3566,0.25822,0.15555,0.16855,0.18109,0.095366,-0.13392,-0.0048912,0.10839,-0.048169,-0.26159,-0.11292,0.30276,-0.26811,-0.0095359,0.1281,-0.31774,0.22142,0.10218,-0.17145,-0.077255,-0.087424,0.034935,0.016786,-0.087817,-0.066002,-0.098618,-0.057651,0.021663,0.07056,-0.24187,0.033843,0.068518,0.11254,0.38169,-0.22155,0.4283,0.29476,-0.81425,-0.40739,-0.0043732,0.03785,-0.079886,-0.11674,0.10792,-0.13172,-0.044623,0.29113,-0.22555,-0.22066,0.24522,-0.0068618,0.018573,0.040824,-0.14719,-0.039817,0.19088
2.4924,1.0721,-0.38755,-2.1036,-0.74442,1.1155,0.087815,0.037688,-0.16953,-0.98216,-0.86924,-0.16233,-0.057622,-0.19856,-0.089964,-0.1545,-0.12334,-0.027405,-0.044523,-0.16612,-0.080767,-0.089586,-0.18565,-0.11889,-0.067678,-0.12253,-0.05224,0.086061,0.15832,0.16125,0.2739,0.50598,0.45649,0.29085,0.42081,0.2391,0.19344,0.18196,-0.0069519,-0.074704,-0.079592,0.031695,-0.11073,-0.11339,0.086525,-0.017545,-0.083897,-0.0020316,-0.037746,-0.13669,2.5129e-05,0.10721,-0.19803,-0.10473,0.077973,-0.059928,-0.11661,0.036707,0.015767,-0.11291,0.027218,0.054754,-0.11234,-0.041058,0.093822,0.069976,-0.16309,0.072948,0.12721,-0.23404,0.10165,0.081601,-0.10682,-0.056385,0.19154,0.085632,0.022957,0.2966,-0.12777,-0.19478,0.152,-0.2355,-0.32091,0.11003,-0.040195,-0.0025157,0.030578,-0.01907,-0.068145,0.030487,0.14584,-0.042544,-0.024277,0.036534,0.12447,0.20734
2.5553,-0.036175,-0.78756,-0.026541,0.12458,-0.91494,-0.88304,0.087363,0.33761,0.17223,0.13719,-0.11525,-0.070875,0.16782,-0.32045,-0.60254,-0.10834,0.017693,-0.1059,0.0005052,-0.097366,-0.19304,-0.00094796,0.12335,0.0034746,-0.15503,-0.12286,0.032549,0.05046,-0.069862,-0.081271,-0.022961,-0.07835,-0.065864,0.031032,-0.02916,-0.088214,-0.041354,-0.027529,0.0074548,0.020158,-0.0099686,-0.016966,-0.069076,-0.014068,0.026416,-0.095028,0.14073,0.3916,0.12456,0.12783,0.351,0.16432,0.11999,0.29734,0.21406,0.010048,-0.15467,-0.15041,0.02514,0.081961,0.043061,-0.0058128,-0.084223,-0.046345,0.029172,-0.017152,-0.055956,-0.037208,-0.033906,-0.049553,-0.02664,0.074063,0.035527,-0.11999,-0.0068499,0.14982,0.048526,-0.014506,-0.02618,-0.025768,0.072865,0.024268,-0.022825,0.037329,0.0011723,0.16714,0.42355,0.61038,0.94509,0.59227,-0.41294,-0.39416,-0.031895,-0.6836,-2.1984
1.6032,1.5302,-0.28328,-1.8736,-1.2825,0.50886,0.76583,-0.13636,-0.076671,-0.16217,-0.56243,-0.62134,-0.15579,-0.023111,-0.037682,0.16763,0.021606,-0.13238,-0.23863,-0.20309,-0.17705,-0.19113,-0.11227,0.0043713,-0.23981,-0.18478,-0.12162,-0.17049,0.10679,-0.057899,-0.071794,0.091046,0.071515,0.24921,0.30738,0.25365,0.38962,0.5064,0.28889,0.24206,0.31699,0.14141,0.16033,0.004048,-0.078624,-0.028911,-0.1462,0.040525,0.03898,-0.074109,0.0075976,-0.0041683,0.015104,0.069731,0.044184,0.019529,-0.071627,-0.13596,-0.0058106,-0.024329,-0.12893,-0.022306,-0.0033944,-0.097699,-0.048482,-0.012571,-0.025518,0.0035244,-0.033028,-0.0038498,0.022463,-0.094978,-0.02777,0.18625,0.13771,0.14984,0.15188,-0.15221,-0.11259,-0.081138,-0.18965,-0.067389,-0.13473,-0.082384,0.067063,-0.029383,-0.078199,0.038983,-0.049692,-0.14468,0.059247,0.11251,0.069278,-0.024865,-0.046204,0.32728
3.6212,1.1587,-0.3403,0.089994,-1.883,-1.0006,1.0126,-0.75582,0.38764,-0.040307,-1.3853,-0.32563,0.13084,-0.10739,-0.23134,-0.050894,0.14874,-0.19761,-0.059413,-0.14808,-0.11859,-0.045634,-0.23312,0.12522,0.02523,0.09357,0.29061,0.13171,0.51661,0.43245,0.23827,0.3261,0.39504,0.19408,-0.043761,0.22525,0.096885,-0.18822,-0.032745,0.010253,-0.074942,-0.028188,-0.0097165,0.0025332,0.07374,-0.086023,-0.012838,-0.0022971,-0.11114,0.071715,-0.066207,-0.13432,0.15168,-0.0343,-0.16064,0.18778,-0.1015,-0.1174,0.034209,0.017282,-0.051923,0.010591,0.0065161,0.068162,-0.027272,-0.043287,0.12999,-0.16051,0.19298,-0.083469,-0.031425,0.085295,0.13146,0.12817,-0.27538,0.054229,0.33531,0.22541,0.089833,0.12075,-0.041222,-0.23825,-0.26344,0.0004327,-0.17487,-0.1661,0.12231,0.035527,-0.086474,0.085198,0.16052,-0.21606,-0.12857,0.3257,0.20047,-0.75485
3.0594,-0.0040504,-0.35964,-1.0399,-1.3685,0.67592,0.58,-0.34078,0.24306,-0.22762,-0.7617,-0.3256,-0.1464,-0.2473,-0.1337,0.0012047,-0.21776,-0.25049,0.0067582,-0.02502,-0.27142,-0.15031,0.066348,-0.24992,-0.18881,-0.057862,-0.086718,-0.16704,-0.14122,0.048085,0.04061,0.034242,0.1269,0.33913,0.26708,0.3308,0.45427,0.35594,0.2675,0.21627,0.26848,0.035947,-0.07111,0.15593,-0.034838,-0.16252,-0.073676,-0.025256,0.054977,-0.013233,-0.030742,-0.04421,0.025192,0.050446,-0.036501,0.12077,0.16796,-0.22212,0.016045,0.15665,-0.1204,0.067184,-0.10091,-0.053671,0.0075487,-0.11863,0.087606,0.1145,-0.1953,-0.11435,0.015463,-0.018075,0.090304,0.049233,0.20651,-0.093782,-0.17422,-0.022714,-0.35154,0.041205,0.026933,-0.06543,0.085243,-0.1084,0.20046,0.095067,-0.33208,0.080936,0.27828,-0.24145,-0.04634,0.2144,-0.096989,0.078055,0.3216,-0.26698
1.0486,0.40994,0.2695,-0.091485,-0.61786,-0.75791,-0.51934,0.11821,0.31942,-0.027094,0.011637,0.17891,-0.22778,-0.6264,-0.49871,-0.15769,0.05109,-0.11496,-0.33567,0.043253,0.24503,-0.27807,-0.25064,0.01549,-0.21294,-0.059585,0.00020256,-0.26232,-0.019559,-0.089201,-0.37581,0.026747,0.13242,-0.066144,0.11741,0.15306,0.22158,0.21732,0.046343,0.54188,0.58455,-0.011465,0.26931,0.20921,-0.001776,0.30345,0.0088244,-0.083102,-0.058277,-0.045881,0.33835,0.18465,-0.19296,-0.18714,0.12876,0.19355,-0.11673,-0.0060203,0.04147,-0.19517,0.014648,0.1551,-0.12248,0.059334,0.25674,-0.26164,-0.17043,0.24421,-0.045693,0.030955,0.006212,-0.030093,0.26612,-0.17012,-0.19041,0.16723,-0.054984,-0.2592,-0.24148,-0.056825,0.012799,0.13108,-0.10749,-0.23083,0.26357,-0.16206,-0.19111,0.17703,-0.25324,0.050656,0.23475,-0.059153,-0.0063507,0.012083,0.023516,0.086544
3.2149,-0.37031,-0.39991,-0.80019,-1.0623,0.6513,0.34289,-0.29902,-0.095049,-0.59589,-0.84551,-0.28292,-0.041359,-0.10321,-0.093877,-0.16174,-0.017468,-0.0035361,-0.10072,-0.15407,-0.059214,-0.033346,-0.18058,-0.15651,-0.024863,-0.16721,-0.14072,0.00011253,-0.10622,-0.018945,0.035797,0.099831,0.22987,0.20048,0.35787,0.41869,0.29737,0.30115,0.30965,0.24343,0.14317,0.10039,0.061113,-0.037238,-0.0083218,-0.036181,-0.081193,0.019843,-0.028373,0.0030403,0.00036999,-0.079619,0.062064,0.0067139,-0.070302,0.0058291,-0.022304,0.0079582,-0.081831,-0.031978,0.065538,-0.06962,-0.075014,-0.033924,0.00061584,-0.070121,-0.026364,0.009543,-0.0048214,-0.03651,-0.1086,0.12261,0.23296,0.078809,0.042994,-0.050662,-0.21149,-0.11722,-0.053498,-0.11196,-0.087455,0.0063312,-0.029302,-0.038476,0.033056,0.019349,0.051595,-0.048685,0.0033557,0.097267,-0.089583,-0.012025,0.0048457,0.12104,0.32569,-0.15235
-1.1615,-0.60734,0.20934,0.62749,0.22332,-0.22877,-0.15658,0.081106,0.044954,-0.085547,-0.067504,-0.01891,-0.037025,-0.0086045,0.051969,0.011038,-0.090715,-0.094997,-0.014268,0.020959,-0.017766,-0.068927,-0.095933,-0.10478,-0.088356,-0.036999,0.007357,-0.048454,-0.16635,-0.1647,-0.0031114,0.094981,0.0023197,-0.091379,-0.023318,0.082831,0.094164,0.10713,0.17893,0.18442,0.089243,0.079677,0.24382,0.38899,0.31189,0.11323,0.048777,0.14651,0.18314,0.077224,0.019489,0.093011,0.12704,0.06171,0.070148,0.13083,0.027063,-0.16375,-0.14248,0.027035,0.046721,-0.040211,-0.016703,0.026545,-0.04,-0.03336,0.10011,0.053817,-0.20818,-0.24076,0.076312,0.24786,0.0079126,-0.23169,-0.094262,0.20795,0.30226,0.16954,0.028512,0.010683,0.060129,0.025316,-0.13941,-0.25356,-0.14917,0.02372,0.017434,-0.074643,0.012427,0.1961,0.16596,-0.05409,-0.14135,-0.025171,0.067721,0.0072898
-1.7984,1.638,1.423,-0.49065,-1.3767,-0.98441,0.095353,0.40929,0.0051913,-0.20997,-0.30841,-0.55165,-0.5957,-0.012418,-0.098642,-0.17699,0.0045047,-0.056682,-0.024802,-0.17822,0.0018338,-0.041445,-0.26359,0.049403,-0.10767,-0.12815,0.048534,-0.20672,-0.078233,-0.055744,-0.14919,0.17896,0.15933,-0.068484,0.34701,0.61094,0.28595,0.35333,0.44492,0.32475,0.21746,0.096038,0.17257,-0.021161,-0.026085,0.056104,-0.20082,-0.12211,-0.048842,0.0070317,0.081764,-0.10607,-0.083238,0.090205,0.006916,-0.079734,-0.064877,0.11652,0.040021,-0.19954,0.027692,0.057905,-0.10996,-0.04717,0.041248,-0.10938,-0.091592,0.16074,-0.08823,-0.08747,0.052558,-0.18667,0.17027,0.097203,0.020691,0.41319,0.012717,-0.16426,-0.14983,-0.056619,-0.11032,-0.32008,0.069364,-0.029213,-0.23982,0.15841,-0.0055169,-0.19308,0.074289,0.099905,-0.0054612,-0.080523,0.034473,0.047504,0.032035,0.38077
-0.51188,1.3184,1.2716,-0.2762,-1.7966,-1.5474,0.62396,0.79592,-0.39882,0.05995,-0.25246,-0.4077,-0.42548,-0.39077,-0.0036255,-0.035619,0.031476,-0.15798,-0.051585,0.092306,-0.11797,-0.2151,-0.041806,-0.050864,-0.19549,-0.12233,-0.03907,-0.13761,-0.073121,-0.091237,-0.10397,0.20342,0.063926,0.039877,0.31774,0.20569,0.24461,0.41313,0.40619,0.33017,0.27335,0.24333,0.23803,0.13507,-0.0069579,0.040887,0.017175,-0.11109,-0.087299,-0.041437,-0.093619,0.015424,-0.025864,-0.16225,0.080807,0.098379,-0.19745,-0.084218,0.17792,-0.017046,-0.063737,0.052624,-0.055776,-0.097375,-0.086142,0.084054,-0.011191,-0.14359,-0.021164,0.18895,-0.072408,-0.233,0.33618,0.26705,0.10991,0.068624,-0.26289,-0.078717,-0.055978,-0.19939,-0.035572,-0.12411,0.057989,-0.067202,-0.10991,0.16154,-0.12428,-0.03705,0.083794,-0.020285,0.0074149,-0.048102,-0.014531,0.11721,0.072586,-0.23857
0.23773,-0.30759,0.60231,-0.33675,-1.6289,-0.42906,0.062046,-0.50883,-0.62177,-0.080219,-0.028551,-0.16475,-0.1692,-0.031083,0.059498,-0.31201,0.22442,0.050423,-0.33077,0.33345,-0.19867,-0.41211,0.29489,0.12408,-0.25868,0.34443,0.37348,0.15258,0.28465,0.097772,0.63073,0.3794,0.020682,0.56196,0.2144,-0.042244,0.019334,-0.28077,0.30881,-0.15812,-0.40846,0.25163,-0.15098,-0.065168,0.0022316,-0.084765,0.11568,0.0067239,-0.12475,0.20361,-0.13188,-0.032408,0.32862,-0.16634,0.13325,0.3211,-0.086346,-0.37687,0.03568,0.38691,-0.23527,-0.18924,-0.22051,-0.23204,-0.099679,-0.053541,-0.047223,-0.12932,0.24003,-0.20401,-0.11359,0.13747,-0.091102,-0.014147,-0.10998,0.079479,0.10344,-0.071291,-0.17073,0.10882,0.23902,-0.13038,-0.011218,0.10627,-0.057272,0.11944,0.11015,-0.11919,0.096188,0.36524,0.12169,-0.074856,0.027867,0.41217,0.53941,-0.48312
-0.021527,-0.14551,0.2556,0.53248,0.44059,0.47608,0.26348,-0.30614,-0.54306,-0.58415,-0.73134,-0.38647,0.22798,0.10616,-0.32748,-0.13852,0.16298,-0.021633,-0.10875,0.19328,0.19153,-0.30616,-0.48247,-0.061633,0.17058,-0.069404,-0.18391,-0.053109,-0.087965,-0.19951,-0.070564,0.10793,0.068108,-0.032062,-0.073399,-0.21856,-0.32767,-0.068354,0.21988,0.012572,-0.26584,-0.023741,0.31817,0.20294,-0.070976,-0.05874,0.12577,0.22275,0.22455,0.19232,0.13069,0.11917,0.22148,0.28102,0.19594,0.12543,0.10988,0.054108,0.056957,0.14849,0.12922,0.0097086,-0.011825,0.033404,0.039961,0.031987,-0.014907,-0.067122,0.00050034,0.056442,-0.030787,-0.023979,0.09555,-0.0042088,-0.19692,-0.14985,-0.042128,0.0059538,0.1528,0.20751,0.079602,0.070891,0.0078841,-0.30235,-0.26848,0.14267,0.098604,-0.20446,0.051365,0.37951,0.018951,-0.36605,-0.012084,0.3195,-0.024711,-0.89868
1.0302,1.3729,0.26435,-1.3079,-1.3724,0.25688,0.74601,-0.024011,0.1182,-0.033547,-0.91643,-0.92775,-0.12536,-0.057075,-0.14972,0.017924,-0.087651,-0.15031,-0.014344,0.074623,-0.14526,-0.19167,-0.063771,0.030489,-0.14357,-0.11028,-0.1666,-0.2032,-0.0026656,-0.07986,0.050521,0.10904,-0.067447,0.20711,0.46145,0.22607,0.3305,0.44004,0.29808,0.26903,0.16055,0.19889,0.15138,-0.0089153,0.065624,0.042611,-0.090384,-0.11286,0.03951,0.04596,-0.070102,0.0049135,0.032773,-0.0063608,-0.096141,0.034381,0.020045,-0.021176,-0.023808,-0.066796,0.053779,-0.071192,-0.05878,-0.069071,0.051032,0.036084,-0.10836,0.12464,-0.03286,-0.06407,0.099585,-0.041102,0.080746,0.20263,0.17986,-0.099508,-0.22318,-0.020299,-0.23851,-0.19065,0.022307,0.014894,-0.030899,-0.034366,0.012633,0.033576,-0.14274,-0.023328,0.19363,-0.099408,-0.13564,0.022896,0.12233,0.06037,0.062101,0.46264
-1.0441,2.3141,-0.26886,-0.92893,-0.042396,-2.2708,-0.46655,1.5214,0.041157,-0.46283,0.078884,0.01463,-0.51165,-0.44112,0.043021,0.026753,-0.23574,-0.012565,-0.18629,-0.016016,0.098316,-0.33678,-0.023642,0.010165,-0.11795,-0.1748,-0.19467,0.21164,-0.30514,-0.16907,0.61591,-0.015877,-0.14643,0.30524,0.084136,0.51116,0.57993,-0.080715,0.48251,0.35306,-0.015377,0.52763,0.018994,-0.042694,0.19401,-0.096353,0.18724,-0.19288,-0.27988,0.22847,-0.22456,-0.047186,0.13595,-0.32217,0.024639,0.1685,-0.010133,-0.062469,-0.19834,0.17165,0.074417,-0.13367,-0.071361,-0.13122,0.19185,-0.030983,-0.026837,-0.1073,0.011224,0.1643,-0.35431,0.24957,0.37045,0.11424,0.089515,-0.33467,-0.01469,0.030104,-0.26222,-0.16054,-0.097646,-0.021368,0.064121,-0.099581,-0.030224,0.063373,-0.10641,-0.0067416,0.082158,0.1388,-0.19812,-0.077232,0.27622,-0.081198,-0.13101,0.58112
0.5141,0.99839,1.9441,-0.1184,-1.5502,-1.1324,-1.6018,0.70578,1.116,-0.4273,-0.13123,0.17753,-0.42852,-0.66681,-0.33788,-0.1357,0.055212,-0.12512,-0.047748,-0.12841,-0.052546,-0.014468,-0.35239,0.023761,0.028044,-0.21027,0.0027792,-0.11211,-0.21202,0.13296,0.055097,-0.20089,0.21697,0.16671,0.062681,0.27456,0.30631,0.44828,0.27211,0.17448,0.22835,0.30997,0.039332,0.10447,0.31321,-0.19337,-0.038167,0.02914,-0.064963,-0.006984,-0.19249,0.015416,0.0028999,-0.12576,0.076237,-0.046281,0.038828,0.050285,-0.046095,-0.11655,-0.069521,0.09026,-0.13675,-0.0057632,0.046237,-0.087777,-0.12983,0.051776,-0.020389,-0.11398,0.031065,0.14089,0.35863,0.018234,-0.039923,-0.077531,-0.19379,-0.077216,-0.28025,-0.10765,-0.047434,0.064422,-0.09895,-0.17765,0.21968,-0.12072,-0.027655,0.018893,-0.084407,0.089505,-0.14625,0.02134,0.075395,-0.10962,0.079397,0.28868
3.9582,0.92248,-0.42983,-0.53691,-2.1983,-0.30867,1.0052,-1.0721,0.23209,-0.12276,-1.0003,-0.32403,-0.14791,0.093986,-0.22155,-0.29197,0.14814,-0.14668,-0.27043,-0.14696,-0.11183,-0.1414,0.072729,0.036689,0.17713,0.1423,0.48419,0.55687,-0.011962,0.57664,0.27216,0.11782,0.20475,0.10262,0.21665,-0.2074,-0.030295,0.15912,-0.29899,-0.078484,0.11051,-0.065473,-0.055263,0.11534,-0.19961,0.080428,0.080718,-0.10167,-0.14364,-0.061457,0.20342,-0.21947,-0.025837,0.072317,0.1109,-0.21341,-0.098297,0.20282,-0.0052396,-0.10638,0.0032461,-0.017697,0.031159,0.011203,-0.032917,0.0011856,0.012272,0.038259,-0.027524,0.033854,0.013077,0.01964,-0.040215,0.026249,0.060929,-0.13425,0.10343,0.42453,0.23701,-0.089537,0.12292,-0.16187,-0.40059,-0.15392,-0.097752,-0.099746,0.099115,0.1565,-0.27553,0.038639,0.094617,-0.087035,0.14911,0.058422,0.038858,0.476
0.79868,0.45606,0.92398,1.1032,-0.063753,-1.0463,-0.9721,-1.1184,-0.76269,0.41918,0.51157,0.035322,0.1562,-0.022355,-0.36293,-0.032805,0.13252,-0.30647,-0.37538,-0.11539,-0.14995,-0.07849,0.05103,-0.13853,-0.17125,0.047054,0.075276,-0.12165,-0.12117,0.14596,-0.047887,-0.29683,0.082322,-0.093509,-0.40438,0.30174,0.23822,-0.54268,-0.13546,0.24801,-0.1586,-0.099721,0.23603,0.12998,-0.16875,-0.12009,0.27333,0.31104,-0.049728,0.046731,0.47351,0.2721,-0.03135,0.31526,0.31931,-0.086218,0.050952,0.19262,0.064006,0.14939,0.10134,-0.099003,-0.025414,0.10848,0.033821,-0.15138,-0.1432,0.028091,-0.0052617,-0.04512,0.023948,-0.10665,-0.11524,0.10123,0.065602,-0.051523,-0.067351,-0.10789,0.0072875,0.12138,-0.015931,-0.11952,-0.036531,0.049282,0.0014261,-0.076593,-0.0020989,0.04638,-0.16157,-0.19414,0.19398,0.25412,-0.27028,-0.3075,0.14267,0.31124
-0.7122,0.89765,1.8277,0.013011,-1.7003,-1.2954,-0.94237,0.68306,1.1832,-0.43378,-0.50828,0.51911,-0.4936,-1.0347,0.037372,0.058351,-0.17919,0.14558,0.0024193,-0.20257,0.028184,-0.026768,-0.16657,-0.17223,0.016217,-0.15886,-0.1945,0.022317,0.24197,-0.037421,-0.26997,0.29259,0.060316,0.01676,0.52912,0.30295,0.21863,0.42364,0.34614,0.32928,0.088953,0.21065,0.14309,0.14276,0.11131,-0.19758,0.16238,-0.11996,-0.079025,0.03894,-0.21839,0.024822,-0.075357,0.066655,-0.12003,-0.14166,0.16186,0.011306,0.053768,-0.24508,-0.16261,0.28265,0.094818,-0.22885,-0.24205,0.077651,0.037067,-0.08776,0.39975,-0.48549,0.10326,0.75668,-0.24595,0.087054,-0.12074,0.16655,-0.13377,-0.53909,0.10478,-0.28837,-0.019109,0.032258,-0.17898,0.14299,-0.10346,0.065673,-0.02876,-0.016059,0.020607,-0.1681,0.30409,-0.0038788,-0.24265,0.16072,0.1629,-0.030222
-1.2455,1.2924,1.3783,-0.45618,-1.0312,-1.0288,-0.39603,0.93153,0.072502,-0.20139,-0.12762,-0.26281,-0.45815,-0.47965,-0.020314,-0.12201,-0.041277,-0.13911,0.035719,0.17527,-0.2636,-0.17577,0.047717,0.12648,-0.074201,-0.44519,0.09706,0.095234,-0.030044,0.0035484,-0.2307,0.13418,0.12935,0.14838,0.21417,0.026757,0.25698,0.38446,0.36394,0.35118,0.060501,0.39518,0.26329,-0.10379,0.13287,0.10906,-0.031743,-0.13688,0.073767,0.056057,0.06328,-0.073354,-0.17595,0.19442,0.0607,-0.10924,0.037744,0.06052,0.036566,-0.12884,-0.020939,0.12636,-0.027436,-0.10818,-0.03875,0.1389,-0.1643,-0.10912,0.11922,-0.073151,0.072017,-0.0090732,0.0035761,0.26059,0.10789,0.025293,-0.075522,-0.2221,-0.051182,-0.047597,-0.14664,-0.10096,0.031509,-0.091096,-0.11453,0.11118,-0.052168,0.031589,0.10868,-0.23178,-0.1118,0.16892,-0.022853,-0.074364,0.092847,-0.010696
-0.70961,-0.23345,0.1544,-0.36678,0.047183,0.45449,-0.88569,-0.32194,0.23801,-0.20134,0.039499,-0.23832,-0.14431,0.058794,-0.22411,0.026374,-0.034294,-0.39768,0.13258,0.061813,-0.2228,0.064149,0.045428,0.44916,0.29607,-0.066229,0.43332,0.40624,0.067977,0.32234,0.16622,-0.058436,0.2387,0.01458,0.094388,0.011906,-0.28354,0.35738,0.21735,-0.29073,0.017094,0.090552,0.0712,0.075967,0.044641,0.023665,-0.010856,-0.074889,-0.018163,0.16876,-0.010108,0.038788,-0.19289,-0.22001,0.34732,0.0047909,-0.17116,0.0079802,-0.17855,0.06697,0.029357,-0.22461,-0.044989,0.035765,0.11021,0.092505,-0.09543,-0.063739,0.1793,0.20237,-0.0030219,-0.0048314,0.12055,0.15117,-0.14978,-0.39386,-0.016244,0.059858,-0.066409,0.11595,-0.021275,0.082178,-0.091357,-0.35686,0.23437,0.14217,-0.085259,0.15601,0.55461,0.8618,0.58862,0.21124,-0.32981,-0.95468,-1.1148,-0.48348
0.12012,1.3783,0.31401,-0.3269,-0.51946,-1.9594,-0.61438,1.4287,0.085846,-0.47233,0.40218,-0.039195,-0.67006,-0.39971,-0.10734,-0.057508,-0.15845,0.022552,0.09531,-0.29957,-0.10282,-0.014412,-0.029305,0.074395,-0.24103,-0.087468,0.047865,-0.10166,-0.093273,-0.031648,0.075317,0.035568,0.089908,0.34538,0.23937,0.12932,0.45895,0.36978,0.099532,0.19466,0.42079,0.045493,0.15028,0.16418,-0.11198,0.25146,-0.054753,-0.13976,-0.029595,0.059825,-0.00061022,-0.22725,0.17165,-0.030893,-0.16519,0.030474,0.022329,0.31215,-0.14361,-0.30294,0.23639,0.019883,-0.032033,0.10172,-0.15211,0.01279,0.044508,-0.13656,0.065404,-0.028893,-0.091284,0.17688,0.35651,0.21466,-0.13129,-0.13123,-0.1101,-0.082709,-0.18339,-0.23491,0.23034,-0.023961,-0.35763,0.22303,-0.058696,-0.1066,0.13402,-0.22336,0.050189,0.15127,-0.046226,-0.064558,-0.04841,0.09984,0.22715,0.078552
-0.079046,1.1679,0.57279,-0.86194,-1.5836,-0.059039,1.0543,0.035443,0.22721,-0.14411,-1.0827,-0.48105,-0.18005,-0.14542,0.016216,-0.074192,-0.1099,0.031421,-0.18689,-0.23078,-0.033114,-0.21032,-0.24959,-0.14865,-0.11439,-0.25988,-0.083943,0.042087,0.0016483,0.19827,0.34693,0.56092,0.4106,0.40698,0.61302,0.29279,0.15778,0.23116,0.07043,0.037473,-0.056695,-0.03238,-0.041471,-0.12408,0.057783,-0.0036349,-0.057406,0.14679,0.026909,-0.12168,0.099841,0.031727,-0.11182,0.027089,0.035651,-0.03277,-0.095951,-0.01604,0.0052134,-0.13299,0.071283,0.0055,-0.1211,0.066778,-0.011785,-0.027415,-0.10434,0.078414,0.027753,-0.16489,0.16133,-0.0060643,-0.1672,0.07327,0.06999,0.083715,0.2856,0.15033,-0.21693,-0.26391,-0.031409,-0.036093,-0.17141,-0.0034242,0.024954,-0.121,0.081128,0.067764,-0.062143,0.028987,0.046653,-0.020798,-0.073043,0.14176,0.11377,-0.71079
1.6727,0.99196,-0.2016,-1.5204,-1.3849,0.73944,0.83979,-0.38274,0.22777,-0.14152,-0.81559,-0.53976,-0.15569,-0.26894,-0.24189,0.17181,-0.11183,-0.19556,0.028182,-0.022173,-0.18554,-0.083693,-0.037996,-0.11627,-0.14412,-0.14167,-0.097642,-0.12768,-0.18215,-0.035512,0.0031215,0.017339,0.10988,0.1787,0.45195,0.3428,0.21491,0.49782,0.40723,0.18532,0.23602,0.17625,0.090535,-0.017819,-0.012262,0.082224,-0.062259,-0.098949,0.0097534,0.0010581,-0.034644,0.018648,0.022811,0.011359,-0.063962,-0.034646,0.027409,0.032969,-0.05814,-0.091711,0.037973,-0.071333,-0.042421,0.0603,-0.099471,-0.12486,0.10648,-0.004341,-0.086173,0.05626,0.0013355,-0.032292,-0.10363,0.13292,0.31175,0.034144,-0.067871,0.037802,-0.050318,-0.27097,-0.10809,-0.11457,-0.084105,-0.013017,-0.034479,0.11893,-0.077737,-0.084976,0.069604,0.038386,-0.05401,-0.025018,0.034006,-0.033975,0.011933,0.25571
0.49325,1.6099,0.51774,-0.33333,-1.2436,-1.7656,0.35076,0.54092,-0.41543,0.10424,-0.14634,-0.50761,-0.37947,-0.11168,-0.083492,-0.27353,0.065495,-0.02495,-0.2543,0.014608,-0.12949,-0.032198,-0.041379,-0.27106,-0.012785,-0.064816,-0.15949,-0.07676,0.010425,-0.11165,-0.17391,0.086319,0.038007,0.081869,0.24742,0.23139,0.41597,0.42808,0.14604,0.44294,0.39459,-0.0095556,0.17872,0.1428,-0.050406,0.018532,-0.043896,-0.089011,0.0076729,-0.092393,-0.069114,0.032895,-0.050522,-0.049944,0.035437,0.10467,-0.092207,-0.025764,0.037713,-0.10184,0.044479,-0.050883,-0.033912,-0.042791,-0.068956,0.03084,-0.12881,-0.04148,0.052088,0.015353,-0.014388,-0.029761,0.24225,0.21399,0.01015,-0.050044,-0.16522,-0.12666,-0.16435,-0.19367,0.09208,0.12245,-0.28737,-0.050123,0.18132,-0.080212,-0.070107,0.036227,0.088067,-0.12762,-0.074168,0.12147,-0.11329,0.028576,0.37644,0.085018
0.46677,0.28184,0.76968,0.86316,-0.3161,-0.84347,-0.54398,-0.72791,-0.40302,0.028974,0.094688,0.10766,-0.10809,-0.064872,-0.13332,-0.25842,-0.12464,-0.10294,0.077801,-0.027442,-0.15935,0.12023,-0.014587,-0.019873,0.072059,-0.23999,-0.050485,0.11224,-0.28538,-0.1975,0.10708,-0.13691,-0.18359,0.16399,0.067766,-0.2066,-0.026141,0.25173,0.23773,-0.0050745,-0.086657,0.18131,0.27592,0.2453,0.35416,0.097676,-0.1202,0.30161,0.38992,-0.050964,-0.0038036,0.20675,0.088413,-0.090299,-0.16002,0.072693,0.11979,0.041018,0.15124,-0.086227,-0.045979,0.13665,-0.10252,-0.038558,0.056762,0.15213,0.083236,-0.22763,0.21244,0.35042,-0.10682,0.044843,0.16112,0.088339,0.10106,-0.1914,-0.069517,0.26216,-0.23139,-0.25525,0.12537,-0.31596,-0.25554,0.099716,0.022076,0.048878,-0.16567,-0.022271,0.20743,-0.18066,-0.12055,0.16584,-0.064818,0.00057081,0.18206,-0.38192
-0.54118,1.4889,0.9946,-0.57556,-1.6164,-1.5946,0.81227,1.2319,-0.35268,0.58241,-0.061661,-1.2245,-0.92661,-0.20169,0.30515,-0.26928,-0.40336,0.19658,-0.0022878,-0.27118,-0.013026,-0.026607,-0.066503,-0.31139,0.37888,-0.23348,-0.46845,0.43416,-0.37999,0.12953,0.14946,-0.48858,0.65873,0.35124,-0.093902,0.45524,0.32301,0.39557,0.31024,0.35179,0.23112,0.13461,0.0038103,0.22142,0.21717,-0.37965,-0.10353,-0.086115,0.18759,0.0099376,-0.53855,-0.011499,0.31445,-0.080743,-0.26047,0.25293,-0.0076974,-0.10029,-0.10184,-0.028511,0.26081,-0.39905,0.21733,0.16779,-0.4986,0.1401,0.068759,-0.30716,-0.0094186,0.26787,-0.1461,-0.14383,0.36516,-0.10129,0.30955,0.48572,-0.61404,-0.13633,0.14785,-0.16354,-0.27261,-0.29016,0.25181,-0.0040373,-0.31109,0.28282,0.036651,-0.39702,0.18134,0.10202,-0.00078772,0.059946,-0.18417,0.087831,0.12851,-0.67642
-0.16306,0.64352,0.72125,-0.012526,-0.45656,-0.017844,-0.10867,-0.7146,-0.68825,-0.24505,0.078042,0.15765,-0.097823,-0.20966,0.059905,0.11002,-0.12183,-0.15518,-0.094541,-0.16288,-0.10544,0.085031,0.025484,-0.10218,0.03185,0.0060406,-0.19178,-0.022722,0.12316,-0.09135,-0.13024,-0.058555,-0.12532,-0.012042,0.039596,-0.20096,-0.18325,0.088067,0.10741,0.029282,0.089732,0.067394,-0.0073092,0.095857,0.15124,0.045053,0.16814,0.35498,0.055971,-0.22652,0.23503,0.65029,0.13454,-0.27234,0.2096,0.33507,-0.13616,-0.036498,0.16354,-0.06934,0.075645,0.17176,-0.27356,-0.18799,0.2827,0.14692,-0.10609,-0.045895,0.025633,0.080363,0.016325,-0.041975,0.13076,0.083498,-0.085979,0.18135,0.29274,-0.090796,-0.10138,0.22577,0.098967,-0.041457,0.30745,0.083274,-0.76057,-0.35366,0.65301,0.15582,-0.4791,-0.15985,-0.35611,-0.57386,-0.46155,-0.90547,-0.50574,2.125
0.25352,2.1169,-0.12352,-0.69024,-0.13998,-2.1475,-0.38123,1.5267,-0.30506,-0.3471,0.61607,-0.18669,-1.0958,-0.26201,0.095351,-0.15166,0.037404,-0.17865,-0.069881,0.0096974,0.030565,0.022543,-0.18883,-0.20876,-0.091742,-0.0048142,0.032698,0.024005,-0.12506,-0.15903,0.20452,0.15931,-0.025057,0.13916,0.29951,0.23258,0.19669,0.55305,0.20616,0.12082,0.35672,0.083412,0.069567,0.32759,0.16945,-0.23525,0.074711,0.096937,-0.16758,-0.07342,-0.055558,-0.019649,-0.0051054,0.025986,-0.022712,0.0022756,0.049379,-0.038358,0.003143,0.058411,-0.013213,-0.052622,0.022444,-0.031722,0.023832,0.054751,-0.10042,-0.1648,0.060533,0.065586,-0.15974,0.16968,0.28325,0.018875,0.030317,0.089044,-0.23654,-0.24138,0.13097,-0.25268,-0.18992,0.086149,-0.033796,-0.19736,0.027707,0.30441,-0.28952,0.012759,0.17479,-0.20801,0.018546,-0.0045616,0.10065,-0.049708,-0.24159,0.62912
1.2021,1.486,-0.35663,-1.5733,-1.2922,-0.051026,0.94976,0.10099,-0.028174,-0.11017,-0.45517,-0.24441,-0.28705,-0.080005,-0.0038375,-0.050804,-0.10944,0.026282,-0.22847,-0.27173,0.20585,-0.14994,-0.23128,-0.21619,-0.084951,0.0032196,-0.25022,-0.16339,-0.048261,0.11612,-0.13034,0.058505,0.52535,0.20617,0.29644,0.41414,0.35691,0.54682,0.30937,0.35825,0.26936,-0.24171,0.20007,0.19916,-0.26895,0.081525,-0.021823,-0.27229,0.057216,0.029098,-0.039803,0.083435,-0.19902,0.14923,0.20074,-0.35783,0.034488,0.15294,-0.24739,0.019706,0.13143,-0.07116,-0.077922,-0.014762,0.058255,-0.18721,0.042479,0.082558,-0.16162,0.025478,-0.07076,0.0070179,-0.075533,0.19895,0.1783,-0.092311,0.19382,-0.49118,-0.25397,0.16032,-0.26583,-0.077844,0.057361,-0.069591,-0.026377,0.054706,0.0083131,0.033463,-0.14403,0.069704,0.18434,-0.15869,0.0019788,0.057003,-0.055201,0.35861
-1.2312,1.0374,1.8327,-0.24044,-2.0479,-1.8025,-0.2152,1.1938,0.34716,-0.2352,-0.44256,0.34039,-0.28629,-0.81059,0.14987,-0.093186,-0.16673,-0.07469,0.10932,0.030049,-0.30985,-0.11143,0.21773,-0.17485,-0.09535,-0.06501,-0.33216,0.10981,0.052626,-0.25759,0.35238,0.16102,-0.021165,-0.19042,0.58185,1.003,-0.28731,0.566,-0.057184,0.4363,0.54716,-0.2316,0.49779,-0.22036,-0.055068,-0.10658,0.076926,-0.19917,-0.12693,0.31323,-0.34039,0.10799,-0.27897,0.051185,0.17934,-0.43729,0.51015,0.056042,-0.48944,0.014502,0.22211,0.034507,-0.13928,-0.086714,0.036381,-0.068388,0.048551,0.14734,-0.38415,0.19098,0.053641,-0.25966,0.68186,0.061768,-0.097658,0.27738,-0.10182,-0.31221,-0.21212,0.088429,-0.18113,-0.065113,0.028857,-0.16118,0.21554,0.23304,-0.15241,-0.32755,0.17323,0.30691,-0.24326,0.079134,0.12985,-0.21409,0.12079,0.44414
0.47857,1.7299,1.0689,-0.7106,-1.6637,-1.9945,-0.054461,1.258,-0.38673,-0.076909,-0.0074083,-0.069602,-0.25369,-0.44998,0.041513,-0.16445,-0.088832,-0.096155,-0.10858,-0.12309,-0.093208,-0.038279,0.040242,-0.3085,-0.21149,0.086971,-0.11282,-0.13631,-0.084876,0.010917,-0.062477,0.040814,0.16557,0.16969,0.26808,0.063056,0.5347,0.50565,-0.053787,0.53449,0.17719,0.093817,0.26745,-0.11026,0.17789,0.069553,-0.086414,-0.10405,-0.0466,0.018299,-0.11295,-0.14118,0.045296,-0.021068,-0.14016,0.046104,0.073199,-0.010483,-0.13147,0.0054876,0.022011,-0.060477,-0.0036429,-0.073873,0.040644,-0.23316,0.025341,0.26201,-0.30075,-0.13714,0.027981,0.013699,0.26695,0.081947,-0.00066036,0.089002,0.0053218,-0.15028,-0.37133,-0.080475,-0.0092307,-0.16489,-0.19789,0.08112,0.18476,-0.19497,-0.049081,0.086431,-0.023452,-0.062228,0.045802,0.078434,0.022489,-0.061303,-0.089424,0.26602
-0.28038,1.515,1.8379,-0.37201,-1.8938,-1.6956,-0.47405,0.95855,0.40074,0.09262,-0.60259,0.010608,-0.056906,-0.79584,0.047633,-0.077552,0.033709,-0.16088,-0.1226,0.076801,-0.32085,-0.053796,0.096336,0.0095745,-0.20883,-0.36014,0.065486,-0.048423,-0.10587,0.24426,-0.16585,0.34242,0.41965,-0.36231,0.4464,0.49366,0.20241,0.30969,0.30136,0.42966,0.0876,0.23976,0.14786,-0.14764,0.17919,0.012554,-0.1523,-0.055407,-0.082455,-0.17141,-0.096822,0.26911,-0.055722,-0.28863,0.20826,-0.015414,-0.21143,0.10783,0.080124,-0.016578,-0.063201,-0.12765,0.074646,0.0020188,-0.18433,0.10225,-0.0084219,-0.023513,-0.1283,-0.075393,0.17319,-0.019109,0.28421,0.3069,-0.16301,-0.23842,-0.15216,-0.085803,-0.082982,-0.2222,-0.045432,0.065514,-0.097736,-0.23463,0.38874,0.099002,-0.41029,0.14353,-0.0041983,0.065912,-0.036349,-0.091949,0.079488,0.045024,0.12527,-0.10061
-0.40307,0.98109,1.7802,-0.13702,-1.4487,-1.0923,-1.0809,0.78061,0.95421,-0.4303,-0.12841,0.27432,-0.71175,-0.94533,-0.16207,-0.019498,-0.11972,-0.085811,-0.099234,-0.072877,0.11535,-0.22618,-0.22996,0.10719,-0.048437,-0.21721,-0.23692,-0.070406,-0.021702,-0.13293,-0.049784,0.078166,0.11626,0.099379,0.18846,0.26279,0.31721,0.22011,0.19335,0.497,0.17352,0.055942,0.24905,0.15007,0.053913,-0.0049473,0.20201,-0.014544,-0.23231,-0.10984,0.084515,0.11467,-0.2098,-0.14622,0.10166,0.18302,-0.14334,-0.20166,0.18397,-0.025749,-0.10855,-0.011684,-0.028214,-0.0154,0.017343,-0.069056,-0.22252,0.072466,-0.0001531,-0.097911,-0.081657,0.020611,0.3365,0.036991,0.084885,0.043712,-0.2018,-0.12312,-0.26218,-0.062202,-0.11658,-0.19561,0.14396,-0.15425,-0.076823,0.23183,-0.18409,-0.016735,0.11488,-0.16123,0.10667,-0.030165,-0.067096,0.10957,0.0011408,0.22228
0.17743,0.7759,0.61887,-0.0093889,-0.18683,-0.20208,-0.58941,-0.68484,-0.50797,-0.0080523,0.28334,-0.244,-0.17711,0.31039,-0.044231,-0.23042,-0.12502,-0.2939,-0.16364,0.018084,-0.07546,-0.090054,-0.041526,-0.022062,-0.03841,-0.098486,-0.091907,-0.057622,-0.11602,-0.094196,0.0046585,-0.085463,-0.10339,0.053021,-0.016496,-0.094739,0.070426,0.10836,0.07013,0.22065,0.24379,0.10317,0.18981,0.3207,0.23039,0.14696,0.072706,-0.034759,0.13672,0.27207,-0.0037977,0.0028435,0.21183,-0.020806,-0.038904,0.1537,-0.067693,-0.18705,-0.010962,0.12853,-0.00097552,-0.25276,0.015647,0.23663,-0.076084,-0.017602,0.14134,-0.084237,0.031871,0.30957,0.17707,0.032477,0.093028,0.09882,0.072844,0.039594,-0.029506,-0.0349,-0.14828,-0.19546,0.031665,0.0094866,-0.064619,0.11752,0.010978,-0.11506,0.03233,-0.031154,-0.07298,0.12455,0.0041986,-0.25298,0.0047157,0.26654,-0.0462,-0.85902
1.9318,-0.039492,-0.16895,-0.86726,-1.0022,0.76835,0.38412,-0.17212,0.24749,-0.80532,-0.91822,-0.017139,-0.16328,-0.18763,0.044451,-0.1087,0.0088797,-0.077883,-0.18076,-0.025692,-0.1208,-0.15055,-0.21429,-0.19001,-0.1346,-0.11593,-0.11685,-0.16011,0.054356,0.2224,0.13366,0.32465,0.48938,0.3819,0.47475,0.43719,0.25962,0.17678,0.19283,0.085017,-0.031875,-0.055647,-0.055341,-0.019808,-0.093952,-0.043133,0.018303,-0.014075,0.03048,-0.024676,0.019758,0.08146,-0.035297,0.066849,-0.0088574,-0.064661,0.026601,0.014485,-0.041786,0.0053961,0.017495,-0.099206,0.046289,-0.0027231,-0.078925,-0.03901,0.082608,0.05629,-0.09345,0.054455,0.046337,-0.020241,0.12557,0.13974,0.25357,0.081792,-0.31241,-0.075481,-0.07722,-0.12551,0.032416,-0.12524,-0.13489,0.067763,0.10343,-0.064429,-0.096764,0.012187,0.08023,0.02767,-0.11516,0.099541,0.058894,0.055483,0.34581,-0.075383
1.4884,-0.66634,-0.40135,0.020707,-0.24758,0.027045,-0.51539,-0.19812,0.53074,-0.49522,-0.30972,0.30725,-0.058751,-0.33158,-0.14024,-0.12011,-0.032865,-0.18045,-0.12787,0.1668,-0.19902,0.1829,-0.30322,-0.086088,0.48085,-0.26784,0.70262,0.50546,-0.014361,0.46177,-0.099198,0.97667,0.52352,-0.63181,0.4221,0.27931,-0.2527,0.01862,0.20996,-0.33066,0.28833,-0.14548,-0.33573,0.078209,-0.2552,0.49909,-0.01271,-0.30064,0.075978,0.049004,-0.26837,0.11977,0.029357,-0.2033,0.35056,-0.40353,-0.20824,0.18423,-0.050693,0.033168,-0.054425,-0.24236,-0.21718,0.52501,-0.0062806,-0.0057367,0.10765,-0.23901,-0.017662,0.035402,-0.12029,-0.26228,-0.069165,-0.03778,0.2958,-0.23565,-0.28434,0.52772,-0.40921,-0.32054,0.63191,-0.19685,-0.17235,0.28133,-0.24814,-0.23975,0.50277,0.096149,0.2846,2.1094,0.48966,-0.5304,-0.20271,-2.0365,-1.3522,3.8945
0.62182,1.8323,0.61653,-0.60735,-0.94555,-1.9191,-0.77019,0.94725,0.071364,-0.19851,0.12901,-0.038753,-0.15645,-0.55236,-0.55492,0.26611,0.039708,-0.31368,0.090802,-0.29434,-0.030479,0.033578,-0.16152,-0.045545,-0.26956,0.14052,-0.33752,-0.11048,0.34089,-0.30983,0.13886,-0.21909,0.11416,0.75456,-0.17286,-0.014022,0.57462,0.50971,0.052813,0.25621,0.41174,0.041196,0.19124,0.13618,0.083406,-0.058961,-0.022436,-0.022032,-0.086,0.063522,-0.24298,-0.040078,0.079895,-0.060323,0.035613,-0.17811,0.0046342,-0.029169,0.069873,0.014133,-0.28449,0.15977,-0.0075682,-0.15053,0.057588,0.061129,-0.032885,-0.32246,0.050096,0.33446,-0.27026,-0.17573,0.26912,0.468,-0.021639,-0.22069,0.19037,-0.30447,-0.16055,-0.18214,0.041498,0.0078263,-0.32267,0.026113,0.12695,0.054615,-0.10397,0.076556,-0.079238,0.082077,0.045452,-0.15256,0.055568,-0.063317,0.063652,0.85304
0.97786,-0.46673,-0.25459,0.40216,-0.037355,-0.95024,-1.0565,-0.49059,-0.062369,-0.044244,-0.15296,-0.10446,-0.012953,-0.1026,-0.16643,-0.018275,0.077167,-0.0024269,-0.078312,-0.10733,-0.11585,-0.03052,0.055519,-0.020305,-0.10828,-0.074487,-0.042384,-0.03734,-0.012926,0.011015,0.014224,-0.063104,-0.070642,0.10743,0.13116,-0.0084276,0.044651,0.14996,0.18258,0.25404,0.21555,0.14173,0.23351,0.25931,0.14723,0.14092,0.19855,0.1581,0.095161,0.074543,0.06096,0.095192,0.062249,-0.1047,-0.053565,0.15812,0.11695,0.037936,0.023804,-0.12349,-0.11148,0.019575,-0.082166,-0.17411,-0.1507,-0.15271,-0.066473,0.0031486,-0.043568,-0.030145,-0.010889,-0.048522,-0.005988,0.031498,-0.049829,-0.053904,0.048407,-0.001517,-0.074595,0.057107,0.10213,-0.037336,-0.10146,-0.09982,-0.023805,0.11473,0.071889,-0.068179,-0.095309,-0.038388,0.092014,0.11204,-0.079636,-0.065832,0.17918,0.36796
0.6413,-0.15489,0.16943,0.83114,0.4889,-0.42333,-0.46329,-0.10665,-0.4191,-0.74279,-0.37745,0.069771,0.087999,-0.1632,-0.23286,0.05014,0.093359,-0.13179,0.076453,0.14897,-0.40977,-0.39457,0.21098,0.068314,-0.33848,-0.1126,0.076778,-0.050306,-0.078247,-0.0806,-0.071176,-0.035561,-0.12131,-0.088913,0.00018351,-0.2114,-0.258,0.10626,0.17516,-0.071793,-0.052237,0.079901,0.072433,0.058803,0.037129,0.07811,0.21797,0.22666,0.2155,0.32116,0.2223,0.013484,0.096978,0.23877,0.18325,0.16126,0.16945,0.031317,-0.047322,0.059067,0.049661,-0.084972,0.014656,0.15859,-0.023296,-0.13828,0.049096,0.087265,0.0019407,0.054511,-0.007659,-0.14246,-0.05949,0.05091,0.040574,-0.046544,-0.21765,-0.15275,0.24742,0.36996,0.059716,-0.10784,-0.019524,-0.013242,-0.11456,-0.1417,-0.03504,0.049393,-0.027644,-0.04367,0.093085,0.069041,-0.020452,0.031821,-0.065459,-0.52919
1.4441,0.42866,-0.047941,-0.038947,-0.13071,-0.55164,-0.69962,-0.65594,-0.6591,-0.18433,0.36688,-0.033626,-0.41983,0.19723,0.43002,-0.16274,-0.24923,-0.10715,-0.34218,-0.097368,0.29416,-0.10559,-0.3352,0.049217,-0.01293,-0.21193,0.16144,0.24178,-0.20218,-0.26338,-0.040737,-0.030488,-0.050859,-0.083528,-0.12751,0.058561,0.11967,-0.19151,-0.21399,0.15622,0.19285,-0.022305,0.091232,0.3256,0.28867,0.15458,0.12357,0.11473,0.11142,0.18228,0.22704,0.14025,0.073155,0.10203,0.057593,0.01972,0.10944,0.041589,-0.09321,0.087662,0.13986,-0.18123,-0.12622,0.19395,-0.024817,-0.25974,0.043979,0.12734,-0.13776,-0.04886,0.1529,0.022967,-0.052295,0.071979,0.038744,-0.094956,-0.057614,0.037064,0.055913,0.15625,0.28362,0.088233,-0.23305,-0.1256,0.13073,0.0081309,-0.14218,-0.023688,0.071726,0.10782,0.036529,-0.24402,-0.14081,0.27278,0.080027,-1.0555
2.6239,0.35737,0.019569,0.33701,-0.51434,-1.6186,-1.3033,-0.29255,-0.18281,-0.21033,0.074632,0.049528,-0.23043,0.020866,0.081967,-0.20656,0.0052477,-0.24585,-0.11426,0.11699,-0.037364,0.028289,0.1074,0.093151,0.24127,0.3273,0.28116,0.3858,0.077347,0.6066,0.096959,0.2206,0.12203,0.072224,0.17079,-0.36886,0.14396,-0.1386,-0.043926,-0.25781,0.17632,0.062513,-0.2315,0.080074,-0.062237,-0.0021876,0.0453,-0.16569,-0.049201,0.13624,-0.12567,-0.042931,0.033218,-0.098726,-0.0033775,0.050023,0.041364,-0.094462,-0.040936,0.14916,-0.16405,-0.092269,0.15805,-0.10574,-0.091858,-0.0026806,0.099696,0.11432,0.043756,0.35239,-0.12596,-0.15034,-0.042294,-0.099415,-0.06113,-0.19785,0.20872,-0.035896,-0.036893,0.10375,-0.24688,-0.02634,0.19003,-0.14122,0.078339,0.057248,-0.23853,0.063591,0.2247,0.023593,1.1917,1.1156,-0.074836,-0.6004,-1.3576,-0.69532
0.22,1.0898,1.9029,-0.21283,-1.9705,-1.7164,-0.84955,1.1528,0.3294,-0.41334,-0.096733,0.19581,-0.12021,-0.72729,-0.044745,-0.22626,0.061838,0.12852,-0.29787,-0.19349,0.066469,0.18674,-0.57428,-0.015754,-0.11736,-0.2417,0.59896,-0.68516,-0.13044,0.3923,-0.27105,0.32796,0.10388,0.20408,0.25247,0.39135,0.52709,0.28175,0.3722,-0.12915,0.3651,0.50703,-0.28697,-0.032412,0.10839,0.024346,-0.095296,-0.14736,0.087442,-0.19421,-0.22741,0.28623,-0.20045,-0.086298,0.18292,-0.31211,0.40592,-0.12581,-0.34609,0.15002,-0.068407,0.42049,-0.36374,-0.23172,0.23913,-0.17445,0.098223,-0.12837,-0.044336,0.15007,-0.2873,0.079513,0.47984,0.056286,0.044638,0.052631,-0.10478,-0.13836,-0.20441,-0.18375,-0.24479,0.1746,-0.00027968,-0.14517,0.18455,-0.31326,0.036898,0.13191,-0.095779,0.077718,-0.22411,0.17743,0.12279,-0.18138,0.11425,-0.080768
-1.057,0.63277,1.4815,0.20453,-1.1014,-1.3906,-0.15273,0.51042,-0.50432,-0.25054,-0.30416,0.24234,-0.29241,-0.4573,0.20444,-0.25396,-0.093914,-0.062688,-0.24113,-0.19764,-0.24642,-0.25456,-0.17322,-0.33068,-0.20819,0.04512,0.027716,-0.049477,0.2767,0.43381,0.38453,0.37129,0.42027,0.50384,0.067316,0.23873,0.36239,0.17563,-0.21285,-0.069786,0.065962,-0.087552,0.071227,-0.037595,-0.080613,0.14703,-0.028206,0.01905,0.21828,-0.093344,0.10184,-0.31403,0.089197,0.063754,-0.077941,0.1415,-0.27504,-0.10642,0.27467,0.019555,-0.24639,0.06066,-0.04951,0.19063,-0.073969,-0.16103,0.13229,-0.20837,-0.044367,0.17282,-0.22088,0.018405,0.20052,-0.074911,0.045874,-0.37486,0.33522,0.25884,-0.3055,0.0045958,0.074104,0.12502,-0.14817,0.25462,-0.018238,-0.021901,0.26561,-0.24171,-0.044325,0.04623,0.019168,-0.016393,-0.16662,0.097055,0.25769,0.20356
1.5623,0.75778,-0.81703,-1.6925,-0.24118,0.93241,0.040548,-0.045335,-0.06951,-0.94553,-0.33991,-0.065057,-0.34644,-0.029126,-0.035057,-0.077229,-0.22073,-0.13083,0.103,-0.32669,-0.22394,-0.010734,-0.34987,-0.083654,-0.17712,-0.1471,0.031894,0.041765,0.32156,0.32354,0.40448,0.49668,0.47135,0.36207,0.18903,0.2082,0.29449,-0.0043162,-0.1545,0.20677,-0.024458,-0.30333,0.20489,0.039858,-0.13125,0.11575,-0.02449,0.0094541,0.021995,-0.059628,-0.044608,0.14245,-0.017412,-0.20619,0.047234,0.014517,-0.054292,-0.08871,0.031977,0.042959,-0.14843,-0.10249,0.07201,0.040596,-0.19424,0.093841,-0.013509,-0.1013,0.012123,0.0023967,0.2962,0.11618,0.031318,-0.071604,-0.15077,-0.14322,-0.17819,-0.0079068,-0.061615,0.082968,-0.097564,-0.0024426,0.11694,-0.034394,0.11001,-0.14703,-0.067318,0.18156,0.027049,0.052177,0.72728,1.2239,-0.35076,-1.7724,-0.70912,1.8585
0.45048,0.13892,0.22676,0.52065,0.58235,0.227,-0.27293,-0.53437,-0.49508,-0.48567,-0.58601,-0.40035,0.055094,0.17055,-0.10046,-0.16977,0.006024,0.053139,0.02637,0.038663,-0.076907,-0.19572,-0.0886,-0.012027,-0.11656,-0.10924,0.011306,-0.014405,-0.060064,0.020474,-0.0029074,-0.13967,-0.1133,0.0011013,-0.021542,-0.098586,-0.13304,-0.15811,-0.094964,0.055904,0.076407,-0.042722,-0.060348,0.02219,0.0028146,-0.054718,0.067748,0.27289,0.26236,0.07888,0.038978,0.13722,0.127,0.07779,0.18261,0.2687,0.1307,-0.014441,0.057118,0.16331,0.078118,-0.073677,-0.045297,0.11406,0.17878,0.10273,-0.016356,-0.0767,0.019402,0.17551,0.10515,-0.11332,-0.069243,0.1521,0.09818,-0.13234,-0.11401,0.094176,0.1711,0.12932,0.11174,0.035121,-0.12931,-0.16184,-0.010767,0.04019,-0.091483,-0.079114,0.17916,0.26913,0.0092832,-0.12571,0.14044,0.17474,-0.30749,-1.0449
1.2046,0.90784,-0.32877,-1.0155,-1.6895,-0.86082,1.3579,0.34733,-0.2693,0.31744,-0.17765,-0.15542,-0.46048,-0.38484,-0.2112,0.079198,0.095047,-0.28964,0.08223,-0.02402,-0.094438,0.01524,-0.17367,-0.17204,0.23505,-0.094531,-0.29575,-0.040904,0.14315,0.05055,-0.23984,0.23424,0.072992,0.053027,0.32998,-0.001052,0.32567,0.50518,0.18897,0.090143,0.3034,0.22165,0.21235,0.069003,-0.071912,0.28788,0.036435,-0.15733,0.013262,0.12164,-0.068398,-0.059439,-0.038954,-0.10913,0.23009,-0.0064148,-0.14559,-0.13319,0.096225,0.3452,-0.27928,-0.11158,0.21925,-0.068228,-0.059201,-0.0038128,0.057093,0.058579,-0.22782,0.085968,-0.037412,0.060248,0.3247,0.020162,0.25418,-0.22632,-0.099849,-0.017063,-0.39696,0.20702,-0.10565,-0.29857,0.079445,-0.013748,0.094372,-0.12616,-0.077591,0.10309,-0.059771,0.12567,-0.092399,-0.15105,0.2218,0.090231,-0.13541,-0.11453
-0.37665,0.82302,1.5969,0.41726,-0.35475,-0.69412,-1.8891,-0.36814,0.64527,-0.31478,-0.44177,0.16035,0.22842,-0.68984,-0.098439,0.28184,-0.49244,-0.082771,0.04214,-0.18567,0.0039926,0.021814,-0.13892,-0.11964,-0.065242,-0.1415,-0.13517,0.073969,-0.14019,-0.25913,0.36904,-0.24363,-0.31998,0.52009,-0.0503,0.045684,0.28338,0.35467,0.65248,0.28726,0.3025,0.28706,0.085834,0.12506,0.087865,0.13365,0.12694,-0.064933,-0.31719,0.1539,0.21286,-0.4745,0.04088,0.065163,-0.10932,0.099496,-0.18831,0.10542,0.11615,-0.18148,-0.046728,0.15355,-0.060857,-0.073456,0.025318,-0.30638,0.17658,0.065596,-0.26167,0.13595,-0.1364,-0.094495,0.054229,0.24952,0.31139,-0.13449,0.0021388,-0.14484,-0.24561,-0.038518,-0.32045,0.173,0.12786,-0.44845,0.11546,0.27131,-0.075709,-0.25183,-0.041314,0.12267,-0.087351,0.070768,-0.12087,-0.10657,0.31836,0.010152
-0.073395,-0.42404,-0.70737,-0.52364,0.2239,0.6645,0.328,-0.12145,-0.019143,0.23079,0.0058599,-0.39732,-0.33749,0.058961,0.20274,0.018341,-0.12446,-0.11517,-0.12258,-0.15101,-0.082176,0.019349,0.0047812,-0.093261,-0.13723,-0.11693,-0.10273,-0.10055,-0.10167,-0.12104,-0.12188,-0.024065,0.11704,0.13084,0.016729,-0.016723,0.10071,0.17592,0.10552,0.068065,0.17827,0.2378,0.083729,-0.079804,0.033288,0.3328,0.45531,0.26834,0.038377,0.036696,0.16869,0.15194,-0.018199,-0.054926,0.1368,0.27256,0.1378,-0.066593,-0.073631,0.023215,-0.019229,-0.15202,-0.13092,0.062471,0.18434,0.09595,-0.062639,-0.095345,-0.01093,0.034256,-0.024995,-0.069916,0.0013588,0.10303,0.092039,-0.0085895,-0.057681,-0.010321,0.048416,0.044853,-0.025627,-0.12058,-0.14919,-0.047364,0.085897,0.07065,-0.0652,-0.081845,0.089279,0.20575,0.098725,-0.060088,-0.060572,0.0063796,-0.015496,-0.14812
0.23546,0.90808,0.94274,-0.44179,-1.1838,-0.57123,-1.194,-0.96191,0.69782,0.37781,-0.45514,0.129,0.10594,-0.14033,0.070612,-0.0409,-0.068907,-0.1953,-0.3793,0.15336,0.2114,-0.3396,-0.070156,-0.020775,-0.31133,0.028544,0.081726,-0.14764,-0.18981,-0.16482,0.075237,0.04635,-0.25726,-0.040275,0.25055,0.033642,0.0027519,0.21339,0.1561,0.099262,0.27853,0.3885,0.17982,0.068309,0.24324,0.23446,0.10223,0.061021,0.014802,0.0023949,-0.026453,-0.042264,0.069415,0.016599,-0.089845,0.052673,-0.085622,-0.19934,0.079513,-0.034982,-0.084501,0.12951,-0.023834,-0.092674,0.056133,0.30397,0.32256,-0.019436,-0.0075987,0.010797,-0.071723,0.19047,0.22376,0.040874,0.061394,0.17678,0.050545,-0.25761,-0.19769,-0.18094,-0.28062,0.011554,0.029091,-0.12034,0.08264,-0.00298,-0.23323,-0.092527,-0.035683,-0.042314,0.096463,-0.02613,-0.21302,-0.095355,0.072924,0.078355
0.69445,0.063059,0.43779,0.94559,0.27574,-0.69694,-0.61101,-0.50442,-0.72444,-0.28506,0.20685,0.084684,-0.077909,-0.037211,0.085953,0.19809,-0.021212,-0.42879,-0.36815,-0.034491,-0.088463,-0.1338,0.096956,0.033439,-0.105,-0.014677,-0.091998,-0.16559,-0.057492,-0.0043956,0.053718,-0.040677,-0.21761,-0.071506,-0.016349,-0.17188,-0.077048,-0.060548,-0.16937,0.035176,0.11016,-0.11349,0.073548,0.44255,0.20422,-0.068667,0.19677,0.2504,0.14164,0.33587,0.20515,0.045417,0.32453,0.22488,0.023006,0.13727,-0.044795,-0.018332,0.3139,0.069419,-0.17571,-0.020913,-0.089274,-0.098874,0.14801,0.089769,-0.14589,-0.1111,-0.015834,-0.02095,0.061353,0.0547,-0.10665,-0.060732,0.019637,-0.036827,0.11788,0.21702,-0.019503,-0.047855,0.1788,0.1209,-0.08909,-0.0078515,0.1461,0.024496,-0.1164,-0.046208,0.042293,-0.074646,-0.19101,0.035426,0.034306,-0.6372,-0.77259,0.6498
1.2792,-0.79005,-0.16086,0.014767,-1.3724,-1.1428,-0.29149,-0.16213,-0.31405,-0.065033,-0.022093,-0.15208,0.011849,-0.16511,-0.050867,-0.012067,-0.17039,0.013887,-0.016734,-0.098065,-0.077678,0.064145,0.029851,0.019835,0.22027,0.15544,0.25392,0.36409,0.33509,0.34888,0.34755,0.2679,0.25636,0.13895,0.26771,0.028909,-0.097498,0.00037227,-0.039181,-0.097031,-0.10357,0.011029,0.0097837,-0.08422,-0.080533,0.022698,-0.030919,-0.096601,0.056772,0.0079391,-0.10638,-0.087069,-0.056103,0.080117,-0.061783,-0.12196,0.094772,-0.0085825,-0.081488,-0.046757,-0.13217,0.18421,-0.03634,-0.14968,-0.005304,0.10027,-0.023393,-0.023315,0.037862,-0.079846,0.07973,0.012977,0.23362,0.35585,-0.035716,-0.11,-0.078798,-0.28382,-0.034645,-0.048943,-0.17785,0.086143,-0.14274,-0.03786,0.055137,-0.11633,0.069062,0.035752,-0.050455,-0.03281,0.06872,-0.094903,-0.057344,0.23339,0.22535,0.044721
0.31598,0.29361,0.83589,0.80446,-0.19468,-0.60958,-0.67048,-0.67778,-0.30809,-0.068326,0.065778,-0.26274,-0.14934,0.39567,-0.13389,-0.47338,-0.21445,-0.15285,-0.10188,-0.069462,0.051869,0.059711,-0.070396,-0.096174,-0.23044,-0.12543,0.18691,-0.10154,-0.21086,0.12737,-0.11916,-0.28552,0.04579,0.21706,0.2263,0.17336,0.12742,0.20663,0.28954,0.32672,0.26612,0.18745,0.23094,0.14265,0.084252,0.090127,0.034758,0.18197,0.081459,-0.11955,0.097982,0.051161,-0.17979,0.0020503,0.041066,-0.1271,-0.037994,0.020051,-0.036433,-0.02417,0.0321,-0.00014155,-0.021229,0.072752,0.004862,0.028632,0.079755,-0.042756,0.038852,0.039757,0.049114,0.20403,0.0032805,-0.030811,0.27393,0.13645,-0.0404,0.011385,-0.19005,-0.20859,-0.073943,-0.2501,-0.1713,0.13865,0.095956,-0.059836,-0.14343,-0.13043,-0.038244,-0.14092,0.0090349,0.27837,-0.27922,-0.24746,0.40198,0.029423
0.96573,0.81777,1.0639,-0.073321,-1.5978,-1.9544,-0.33326,1.3382,0.2429,0.13759,0.010201,-0.26918,-0.23425,-0.5163,-0.040283,-0.29779,-0.10816,-0.042005,0.035737,0.096534,-0.33606,-0.061762,-0.11113,0.055545,-0.14485,-0.070021,0.18038,-0.42468,0.061572,0.068492,-0.19073,0.040904,0.16025,0.20416,0.010664,0.29982,0.42919,0.45546,0.17626,0.2954,0.45573,-0.027536,0.23483,0.30534,-0.15292,0.02709,0.1218,-0.31597,0.070341,0.0012246,-0.40663,0.25407,0.099237,-0.081685,0.032963,-0.17084,0.067662,0.17922,-0.13,-0.12609,0.1007,-0.032597,0.1022,0.18578,-0.11664,-0.25616,0.071033,0.0624,-0.088972,0.026988,-0.040561,0.041696,0.3571,0.14251,0.015569,-0.074585,-0.32897,0.10519,-0.14908,-0.091265,0.054537,-0.35185,0.21587,0.035345,-0.162,0.07696,0.0093845,-0.16826,0.026548,0.41745,-0.33081,-0.030792,0.086885,-0.27387,0.25443,0.15814
0.32317,1.0684,1.7279,0.012909,-1.8181,-1.5696,-1.182,0.30782,0.68555,-0.20202,-0.20125,0.060955,0.30076,0.016618,-0.62752,0.067355,0.33423,-0.37367,-0.12112,0.20294,-0.057161,-0.3402,0.1001,-0.069474,-0.2371,0.29267,0.023563,-0.48804,-0.1987,0.20584,-0.025444,0.081048,0.26668,-0.0030065,0.35497,0.44953,0.067466,0.25913,0.2878,0.3978,0.36359,-0.036284,-0.028843,0.25268,0.34796,-0.062251,-0.22504,0.10861,-0.02826,-0.2798,0.058025,0.13808,-0.12551,-0.091661,0.01191,0.016908,0.044751,0.015357,-0.21104,0.20004,-0.048429,-0.35168,0.34482,-0.051784,-0.13174,0.21035,0.0038485,-0.46574,0.086494,0.26349,-0.22411,-0.099523,0.031817,0.46473,0.1027,-0.1909,-0.098793,-0.059885,-0.0059228,-0.36485,-0.23277,0.18094,-0.079684,-0.15953,-0.15593,0.029155,0.14565,-0.24322,-0.037662,0.25198,-0.10957,-0.32282,0.23952,0.20759,-0.2629,0.2759
0.6188,1.2449,1.1324,-0.13427,-1.808,-2.0341,0.27153,1.3004,-0.06556,0.16417,0.1266,-0.5532,-0.83062,-0.38188,0.041914,-0.2159,0.0025894,0.039409,-0.12713,-0.10933,-0.0035223,-0.0040955,-0.24503,-0.24228,0.21416,-0.40109,-0.23816,0.18933,-0.23373,0.19159,0.034396,-0.16402,0.16257,0.35244,0.29294,0.15436,0.47414,0.32222,0.2132,0.44205,0.18739,0.11725,0.2573,-0.073968,0.10017,0.30055,-0.31074,-0.14124,0.0068124,-0.029508,0.084197,-0.25185,-0.039416,0.063339,-0.035784,-0.090628,-0.051221,0.18388,-0.20766,-0.16878,0.28006,0.024639,-0.23137,-0.11738,0.030964,0.053447,-0.08779,-0.059382,-0.11688,0.13204,0.0034879,-0.065262,0.52483,0.052194,-0.052762,0.18859,-0.43266,-0.24943,-0.043208,-0.32638,0.18133,0.083871,-0.25916,0.070354,-0.049224,0.081147,-0.0085912,-0.12779,0.11666,-0.028392,0.019103,-0.046995,0.0065683,0.041216,-0.00111,0.58901
0.039738,2.2512,-0.071998,-1.6575,-1.2974,-1.1556,0.249,0.87951,-0.11499,-0.66484,0.50346,0.01362,-0.85352,-0.073824,0.27409,-0.51177,0.12497,0.29636,-0.67827,0.32536,-0.093302,-0.31267,0.085314,-0.063766,-0.15226,-0.27622,-0.043433,0.024453,0.035011,-0.058963,0.049729,0.23204,-0.17514,0.63484,0.75743,-0.25176,0.49508,0.29752,0.24154,0.37318,-0.10475,0.35255,0.083203,0.058893,-0.0049207,-0.34853,0.49511,-0.12573,-0.62549,0.42213,-0.21309,-0.24525,0.35301,-0.21035,-0.25568,0.2738,0.025045,-0.36958,0.34489,-0.053712,-0.19327,0.16504,-0.17463,0.21652,-0.21485,-0.0025502,-0.055897,-0.0051713,0.58718,-0.64952,-0.20325,0.62686,-0.15063,0.2816,0.2757,-0.43112,-0.13523,-0.036251,0.077565,-0.22812,-0.41778,0.12964,-0.06303,0.06374,0.044599,-0.081647,0.26224,-0.35085,0.12425,0.17194,-0.3502,0.50999,-0.21071,-0.27531,0.60166,-0.95551
0.41507,0.021293,0.45719,0.83509,0.068021,-0.58086,-0.16826,-0.267,-0.69162,-0.35372,-0.032995,0.023196,-0.055718,-0.21511,0.046604,0.18698,-0.15525,-0.286,-0.17677,0.0096734,0.06478,-0.19628,-0.067183,0.2856,-0.053131,-0.40725,-0.075365,0.16063,-0.060918,-0.16028,-0.040834,-0.017307,-0.06749,-0.091603,0.011398,0.096708,-0.12538,-0.14992,0.12764,0.0037974,-0.10548,0.11067,0.03978,-0.0014187,0.2248,0.19062,0.041207,0.10642,0.27416,0.32642,0.17047,0.092422,0.148,-0.0015395,-0.10589,0.2111,0.34294,-0.074035,-0.19399,0.1513,0.14408,-0.085782,-0.039942,0.0007355,-0.042076,0.057359,0.042615,-0.15125,-0.06303,0.19349,0.15994,-0.043708,-0.15376,0.0025033,0.16749,-0.057345,-0.015809,0.32757,0.063082,-0.15525,0.11217,0.1061,0.066076,0.10369,0.030971,0.10349,-0.0059948,0.040821,0.33974,-0.04504,-0.18208,0.39975,0.018511,-0.69224,-0.61559,-0.16613
1.0333,0.71061,-0.23483,-0.91653,-1.0939,-0.019865,0.90694,0.038817,-0.015487,0.21175,-0.38192,-0.92744,-0.43805,-0.040209,-0.2561,0.0035186,-0.033245,-0.17625,-0.003593,-0.092538,-0.19915,-0.087322,-0.20001,-0.10529,-0.20185,-0.24795,-0.093409,-0.12098,-0.026485,-0.03503,0.1374,0.29028,0.20134,0.4424,0.48262,0.22771,0.33943,0.38399,0.20164,0.09401,0.11595,0.18634,0.033068,-0.10828,0.044401,0.0020271,-0.085774,-0.0053009,0.0065452,0.038737,0.008422,0.04862,0.013632,0.012319,0.06933,-0.092252,-0.035205,0.083314,-0.0048917,-0.1117,0.010817,0.035264,-0.080113,-0.023575,-0.048128,0.052894,-0.03889,-0.080372,0.029713,-0.011788,-0.041737,0.080635,0.16288,0.12047,0.037527,-0.22085,-0.13277,-0.030359,-0.09121,-0.10361,-0.024218,0.023938,-0.096928,0.0070937,0.09012,-0.015181,-0.077941,0.020954,0.033,-0.017805,0.017224,-0.042051,0.0062885,0.11271,0.11573,0.018552
-0.19496,0.97126,0.75131,-0.33899,-0.66926,-0.56983,-0.87999,-0.078583,0.88839,0.29047,-0.23295,0.097219,0.02656,-0.21991,-0.10867,-0.31699,-0.55961,-0.17052,0.029283,-0.14915,-0.057589,-0.010294,-0.06977,0.031471,0.018054,-0.076097,-0.064245,-0.035392,-0.020689,-0.056679,-0.11191,-0.065063,0.022451,0.017284,-0.023985,-0.027155,-0.049925,-0.056198,-0.02871,-0.067198,-0.096237,-0.042758,0.053421,0.16792,0.13597,0.067367,0.1943,0.19908,0.070699,0.12188,0.08244,-0.064155,0.024885,0.16105,0.17947,0.21307,0.18201,0.053676,0.021347,0.08017,0.075904,0.046796,0.020302,-0.031794,-0.0273,-0.0096158,-0.02229,-0.020881,-0.059788,-0.053492,0.0062338,-0.036463,-0.014185,0.081187,-0.016525,-0.10281,0.013398,0.05571,-0.023512,0.013677,0.050487,-0.0062761,0.033032,-0.0011449,0.076425,0.34795,0.28798,0.71697,1.0962,-0.18918,-0.6573,0.17388,-0.46014,-0.67506,0.060088,-0.29898
0.49305,1.4711,1.4672,-0.38303,-1.737,-1.7346,-0.81178,0.83222,0.27114,-0.27776,0.0299,0.17853,-0.034886,-0.47933,-0.24283,-0.030094,-0.013579,-0.044181,-0.11214,-0.032108,0.093695,-0.14187,-0.18194,-0.10227,-0.087575,-0.042226,-0.13243,-0.062762,-0.032583,-0.11719,0.0084692,-0.052701,0.13822,0.2179,0.1496,0.40778,0.17771,0.43879,0.48066,0.079584,0.2402,0.1874,0.23111,0.054733,0.025999,0.21293,-0.063581,-0.01097,-0.10025,-0.088776,0.090352,-0.21264,-0.0085674,0.11855,-0.1448,0.0034684,-0.082843,-0.024768,0.074342,0.028005,-0.029631,-0.12015,0.037323,-0.05875,0.097846,0.01952,-0.25284,-0.060377,0.058519,0.019798,0.17327,-0.18804,-0.012595,0.58195,-0.018632,-0.28127,-0.22583,0.059113,-0.045245,-0.34314,0.1609,-0.065128,-0.22741,-0.051723,0.12549,0.079501,-0.32945,0.052878,0.1093,0.0074722,0.068546,-0.1614,0.056194,0.11815,-0.090877,0.14848
1.3328,0.28947,-0.24346,-0.22674,-0.2031,-0.60607,-0.75558,-0.37498,0.15683,0.3309,-0.1046,-0.32443,0.054515,0.18443,-0.12021,-0.34717,-0.31787,-0.062225,0.016447,-0.092069,0.057674,0.03948,-0.16085,0.024278,-0.021139,-0.25006,0.094282,0.1853,-0.17092,-0.075499,0.011136,-0.17726,-0.067415,0.02144,-0.12142,-0.068103,0.055965,-0.0099063,-0.033421,0.14849,0.22346,0.014729,0.08865,0.49322,0.33073,-0.062731,0.20285,0.37676,0.064218,0.054237,0.18516,0.086928,0.073688,0.07189,-0.011765,0.018588,0.045259,-0.016281,-0.021634,0.00074431,-0.050262,-0.079508,-0.021774,-3.4964e-05,-0.022593,-0.034402,-0.052135,-0.021284,0.01086,0.0092326,0.078662,0.055916,-0.095907,0.018761,0.28283,0.1927,-0.034795,0.042165,0.16714,0.066567,0.019422,0.084063,0.025867,-0.073917,-0.13572,-0.16406,-0.052473,0.084994,0.1395,0.095587,-0.092443,-0.03035,0.26836,-0.017955,-0.57913,-0.67078
3.4777,-0.7018,-0.74924,-0.8342,-1.0768,0.76322,0.50681,-0.49542,0.012236,-0.17861,-0.50553,-0.15233,-0.31165,-0.027445,-0.1658,-0.058426,0.26023,-0.2916,-0.11465,-0.13028,-0.17441,0.02942,-0.14858,-0.39511,0.23682,-0.16526,-0.49522,0.1582,-0.17657,0.33428,0.28123,-0.55554,0.73279,0.67435,-0.036924,0.65167,0.30877,0.32209,0.16213,0.20863,0.19249,-0.06482,0.033592,-0.12585,0.12605,-0.11632,-0.18792,0.246,0.036568,-0.33251,0.12742,0.26189,-0.067249,0.026086,-0.12734,-0.0059425,0.12212,-0.1632,-0.1183,0.29211,-0.1574,-0.25693,0.37173,-0.31704,-0.097196,0.15648,-0.14902,0.074262,-0.045091,0.092596,-0.065106,-0.090508,0.17839,0.097936,0.1796,0.014454,-0.18239,-0.013616,-0.16541,-0.28107,0.13434,0.0078111,-0.26363,0.16871,0.031176,-0.14244,0.084187,0.13753,-0.19363,-0.14336,0.32805,-0.077019,-0.20686,0.19495,0.32496,0.26416
3.1721,0.011234,0.0021048,-0.78814,-1.7391,0.28414,0.8727,-0.26931,-0.28401,0.11323,-0.80753,-0.83707,0.23959,-0.35739,-0.21836,0.048673,-0.18694,0.018809,-0.18861,0.025819,0.10335,-0.14823,-0.14797,-0.016425,-0.14136,-0.18347,-0.0017359,0.0093711,-0.055156,-0.14424,-0.0346,0.24106,0.17274,0.01403,0.27553,0.39628,0.25756,0.40519,0.41175,0.13937,0.35171,0.10236,-0.060022,0.1907,0.10287,-0.047341,-0.1758,0.0039983,-0.072145,-0.042455,0.037272,-0.06687,-0.0010948,-0.077364,-0.0042503,-0.003131,-0.17637,0.12939,0.030109,-0.22927,0.073038,0.02326,-0.018729,-0.02621,-0.14633,0.047573,0.013241,-0.12007,0.013589,0.093896,-0.11428,-0.039752,0.17549,0.1392,0.23275,0.031724,-0.29876,-0.07086,0.0015983,-0.3805,-0.0031149,0.1494,-0.33591,0.011065,0.22388,-0.081235,-0.19487,0.024229,0.17313,-0.13409,-0.033991,0.16124,-0.051673,0.12596,0.33453,-0.17361
0.31046,0.087086,0.39418,0.73285,0.51182,-0.014603,-0.34341,-0.42342,-0.48026,-0.592,-0.57203,-0.29746,0.0059309,0.048577,-0.095615,-0.11983,0.030829,0.084945,-0.069912,-0.15886,-0.062877,-0.064856,-0.18147,-0.10455,0.034055,-0.021775,-0.055464,-0.018695,-0.061767,-0.027724,-0.02983,-0.24721,-0.22412,0.039039,-0.081252,-0.28597,-0.061348,0.061079,-0.15725,-0.13457,0.13566,0.16312,0.016197,0.048226,0.19836,0.19146,0.092657,0.19101,0.39148,0.32534,0.057942,0.011352,0.21364,0.25121,0.048576,0.0035645,0.12975,0.063539,-0.049405,0.022426,-0.023259,-0.13718,0.051118,0.19367,-0.017345,-0.13658,-0.026494,0.018125,0.027681,0.04829,-0.022135,-0.050569,0.055757,0.10343,0.017257,-0.039234,-0.024876,-0.030308,0.013983,0.14556,0.14686,-0.00065635,-0.037585,-0.0086563,-0.10437,-0.16098,-0.022731,0.1055,0.048981,-0.074246,-0.09894,-0.011091,0.09894,0.082175,-0.069817,-0.27362
2.6244,0.95339,-0.31981,-2.2194,-0.54748,0.93584,-0.75322,0.25533,-0.44662,-1.1116,-0.18885,-0.18587,0.026961,-0.3877,-0.047897,0.1472,-0.23457,0.11549,-0.42162,-0.18464,0.36563,-0.33362,0.002997,0.15364,-0.062698,0.11174,0.19864,0.40351,0.36299,0.45034,0.31031,0.075776,0.5726,0.14129,0.075463,0.22431,-0.22234,0.011764,-0.043505,0.085413,-0.16808,0.1382,0.0033392,-0.16693,0.085176,-0.13496,0.17022,-0.29584,0.11875,0.10872,-0.17531,-0.083791,-0.070456,0.15951,-0.21069,-0.059604,-0.087554,0.12023,0.07289,-0.22928,-0.0021446,0.25652,-0.12041,-0.24013,0.16578,0.039799,-0.044666,-0.13959,0.024684,0.14829,-0.083522,-0.15251,0.064907,0.18322,0.042423,-0.41617,0.38927,0.46883,-0.18689,-0.022365,-0.21655,-0.099219,-0.28633,-0.129,-0.052468,-0.088323,0.34903,-0.34011,-0.24003,0.4969,-0.31107,-0.02787,0.14363,-0.14422,0.27675,-0.21193
1.5612,-0.51689,0.10177,0.050813,-0.46269,-0.28197,-0.77594,0.70473,0.53525,-0.94359,-0.054779,-0.010898,0.045422,0.16229,-0.1064,-0.038025,-0.2704,-0.17388,0.17387,0.039794,-0.24087,0.0196,-0.1105,0.065471,0.43595,-0.092035,0.11404,0.16545,0.49344,0.20341,0.085972,0.51465,-0.12287,0.47264,0.1472,-0.10028,0.22988,-0.19345,0.2162,-0.073597,-0.099216,0.24919,-0.11583,-0.28935,-0.023772,0.28761,-0.059011,-0.22669,0.11492,0.18398,-0.10063,0.10409,-0.082944,-0.21314,0.20749,-0.089986,-0.063637,0.056092,0.013164,0.10687,-0.45116,0.041295,0.59942,-0.17746,-0.0035054,0.38762,0.028284,-0.21247,-0.1067,-0.17282,-0.0041874,-0.16974,-0.091033,0.25889,-0.19537,-0.094961,-0.032501,0.010459,0.16327,-0.12761,-0.2436,0.29225,-0.032387,0.1273,-0.041512,-0.59841,1.0684,0.22089,0.33619,1.9045,-0.59582,-0.6634,-0.489,-1.6917,-0.26526,1.8895
-0.49787,-0.27799,-0.09158,0.2828,0.44186,-0.15113,-0.50174,0.064185,0.50007,0.23226,-0.062063,0.028627,0.43821,0.60475,-0.14535,-0.71458,0.18,0.79162,-0.24376,-0.67306,0.35493,0.46946,-0.37598,-0.23278,0.24092,-0.075694,-0.17439,0.22754,0.19402,-0.13318,-0.25373,-0.16713,0.2438,0.52725,0.11211,-0.1959,0.13792,0.17354,-0.15564,0.08117,0.40573,0.043749,-0.12987,0.37878,0.45121,-0.22447,-0.45863,0.15606,0.59239,0.20975,-0.30221,-0.1902,0.15721,0.075369,-0.11025,0.10469,0.22787,-0.10611,-0.20959,0.10258,0.1283,-0.04159,0.06245,0.032007,-0.23117,-0.095174,0.18818,-0.023153,-0.22014,0.099548,0.3525,0.13662,-0.21074,-0.31194,-0.04876,0.18592,-0.058867,-0.24558,0.15015,0.33955,-0.064867,-0.18804,-0.041474,-0.32194,-0.43307,0.054588,0.1987,-0.10506,-0.021926,0.12912,-0.18872,-0.26211,0.27678,0.40285,-0.18927,-1.0469
0.26558,0.61779,0.81066,0.18286,-0.73145,-0.7129,-0.58046,-0.6907,-0.37272,-0.077662,-0.13833,-0.01315,0.064758,-0.16445,-0.15364,0.10639,0.21755,0.18342,-0.040152,-0.31439,-0.19268,0.12177,0.084556,-0.1047,-0.019813,0.15842,0.072432,-0.19859,-0.2566,-0.0031737,0.14979,-0.05913,-0.29886,-0.21423,-0.037124,-0.1126,-0.15466,0.099552,0.14384,-0.14368,-0.13752,0.029663,-0.04293,0.069201,0.28218,0.098643,0.042905,0.28831,0.15963,0.010832,0.30781,0.32367,-0.044058,-0.051289,0.22337,0.3148,0.12983,-0.20936,-0.2176,0.18233,0.24323,-0.055192,-0.045474,0.066267,-0.035034,0.015024,0.12761,-0.024085,-0.087949,0.11191,0.15695,-0.0070134,-0.043688,0.050688,0.059791,-0.02033,-0.041672,0.041132,0.15855,0.24159,0.178,-0.10123,-0.28436,-0.017838,0.2559,-0.024237,-0.31024,-0.037867,0.23181,0.11521,-0.055673,-0.14082,-0.037009,0.1382,-0.05257,-0.76691
0.27877,0.30943,0.38747,0.43679,0.3246,0.041563,-0.26247,-0.41717,-0.38884,-0.29797,-0.27144,-0.32959,-0.39778,-0.39499,-0.30352,-0.15475,-0.0092759,0.06867,0.044739,-0.05412,-0.13132,-0.10622,0.0052888,0.096415,0.074348,-0.02731,-0.09698,-0.066867,0.024813,0.08351,0.08,0.046466,0.0064443,-0.04019,-0.080328,-0.052844,0.054267,0.13437,0.051241,-0.16801,-0.29726,-0.16495,0.1212,0.24884,0.063895,-0.23673,-0.33722,-0.1548,0.082134,0.13604,0.019082,-0.085146,-0.077146,-0.041841,-0.071235,-0.12089,-0.084307,0.037059,0.11352,0.062476,-0.046888,-0.07541,0.018568,0.13849,0.17804,0.12438,0.049732,0.017387,0.036487,0.094238,0.16792,0.2267,0.22501,0.14308,0.030732,-0.035779,-0.01584,0.052806,0.10702,0.13182,0.14091,0.13353,0.071606,-0.044476,-0.1262,-0.083813,0.068377,0.18672,0.14956,-0.0049384,-0.12771,-0.11274,-0.011439,0.049725,0.03158,-0.048076
0.19083,0.70308,0.55501,-0.37323,-0.75299,-0.58199,-0.6228,-0.015213,0.36909,-0.037228,-0.21396,0.033606,0.17951,0.0082046,-0.32719,-0.38543,-0.16365,-0.094333,-0.048007,-0.042457,-0.14171,0.014598,-0.088105,-0.17868,0.19738,-0.098895,-0.42315,-0.012851,-0.021114,-0.19432,-0.10587,-0.13252,-0.1011,-0.080287,-0.06302,0.0944,0.079376,-0.013699,0.15022,0.24245,0.13695,0.13975,0.16606,0.28648,0.37812,0.17387,0.11688,0.13869,0.028408,0.14914,0.1948,-0.0045925,0.078133,0.1414,-0.082966,0.013347,0.042894,-0.15661,0.056482,-0.011028,-0.12999,0.11593,-0.049426,0.0434,0.074448,-0.24606,0.15242,0.16543,-0.1042,0.18805,0.071992,0.10448,0.27355,-0.030456,0.016598,0.081143,-0.11983,-0.072936,-0.063566,-0.10831,-0.033195,-0.070717,-0.026494,0.14696,-0.021273,-0.13124,0.0054955,-0.046344,0.072943,0.08232,-0.16361,-0.019386,-0.080365,-0.0037507,0.24801,-0.36346
1.6594,1.3393,-0.30894,-1.9312,-1.5335,0.57055,0.96418,0.083587,0.13477,-0.016301,-0.38659,-0.84722,-0.35486,-0.098018,-0.24091,0.059191,-0.28188,0.084154,0.018726,-0.17655,0.16209,-0.24176,-0.018207,0.14274,-0.063679,-0.21483,-0.1398,0.23655,-0.22629,0.058076,0.18917,-0.18171,0.17892,0.13835,0.3397,0.44163,0.22342,0.2833,0.36131,0.24455,0.19306,0.22941,0.13649,0.083886,-0.061524,0.023681,0.036481,-0.13158,0.034036,0.021865,-0.057998,0.028549,-0.049153,-0.021951,0.13425,-0.051466,-0.10553,0.10641,-0.10526,-0.05511,0.11817,-0.18408,-0.079045,0.066222,-0.083468,-0.035993,-0.13892,-0.052463,0.13267,-0.12994,0.025776,0.091288,-0.0092972,0.17221,0.10612,0.0001994,-0.27574,-0.21224,-0.0086969,-0.11912,-0.092868,-0.050463,0.010328,-0.01574,-0.0082576,-0.04316,-0.058788,-0.0058407,-0.056753,0.079026,-0.013528,-0.052355,0.024456,0.06368,0.2151,0.13213
3.4841,-0.81725,-0.088223,-0.25557,-1.5617,0.34366,0.66751,-0.36451,-0.019225,0.0048957,-0.77421,-0.397,0.043289,-0.22826,-0.011133,-0.0517,-0.099653,-0.044134,-0.054062,-0.0054096,-0.041455,-0.17814,0.013945,-0.024927,-0.1766,-0.022506,-0.084972,-0.087383,0.031979,-0.024382,0.066228,0.049023,0.23538,0.26899,0.1599,0.48688,0.25581,0.27145,0.35104,0.12775,0.19631,0.13958,0.12685,-0.018813,-0.0042158,0.0059895,-0.035954,0.030364,-0.080434,0.078091,0.078543,-0.052938,-0.013083,0.095505,-0.0017122,-0.058651,0.082175,-0.0070203,-0.11747,-0.07698,0.10842,0.072804,-0.13579,-0.095086,0.11251,-0.004314,-0.11344,0.092743,-0.096183,-0.1021,0.11658,0.047215,0.14762,0.1986,0.035653,-0.080148,-0.13112,-0.15787,-0.060838,-0.081229,0.0070127,0.041299,-0.14962,0.036225,0.014839,-0.026902,0.01214,-0.059879,0.084476,0.012918,-0.069188,0.090423,-0.049633,0.02977,0.37293,0.042836
2.1056,-1.0664,-0.20904,0.42124,-1.1002,-0.91074,-0.32917,-0.22493,0.10735,-0.18524,-0.091273,-0.13093,-0.089575,0.093185,-0.11328,-0.2339,-0.073465,0.07606,-0.078012,-0.082969,-0.083854,-0.057776,-0.061655,0.12483,0.12524,0.19309,0.46954,0.10313,0.29757,0.53997,0.33681,0.15608,0.17276,0.28109,0.18159,-0.03043,-0.052206,0.19065,-0.092523,-0.061837,0.085991,-0.055213,-0.0014306,-0.053229,-0.061372,0.047305,0.062974,-0.062458,-0.0083441,-0.036845,0.035314,0.054818,-0.16996,0.050746,0.016695,-0.020368,0.056907,-0.10269,0.010031,0.082782,-0.10752,-0.095033,0.12906,-0.01822,-0.018374,-0.044864,-0.012493,0.045044,0.088696,0.17265,0.047527,0.058505,-0.063202,-0.046036,-0.20578,-0.1704,-0.0078706,0.036195,-0.15731,-0.1103,0.13248,0.07227,-0.1132,-0.11849,0.074773,0.055829,-0.03197,-0.0062275,0.10612,-0.12833,-0.082623,0.10371,-0.0088926,0.13225,0.23472,-0.27835
2.8432,-0.79232,-0.12508,0.27055,-0.55918,-0.47229,-0.71578,-0.14685,-0.020826,-0.078675,-0.080075,-0.30149,0.094533,-0.18212,2.0313e-05,-0.031245,-0.41484,0.027381,-0.11994,-0.30468,-0.048694,-0.0010681,0.035741,-0.0955,-0.14322,0.26643,0.42452,0.18494,0.30194,0.25169,0.26145,0.48784,0.28658,0.081334,0.1956,0.26638,-0.025521,0.15083,0.026038,-0.1756,0.26475,-0.21139,-0.1147,0.030943,-0.169,0.15139,-0.15033,0.0070115,0.037442,-0.18804,0.14833,0.035135,-0.23968,-0.032472,0.018948,0.16431,0.024679,-0.33783,-0.05067,0.12596,-0.031458,-0.11416,0.02055,0.19775,0.25971,0.097889,0.038746,-0.023561,-0.39319,-0.13873,0.039767,-0.43142,-0.08996,0.030966,-0.16136,0.25223,0.093307,-0.24669,-0.093336,0.2516,0.0085798,-0.25438,0.011699,0.040717,0.25151,-0.29784,0.20692,0.48189,0.93296,2.0373,-0.61399,-1.1327,-0.95152,-1.4006,0.4299,1.4871
-1.247,0.79089,-1.7156,-2.2641,-0.34005,-0.077774,-0.22458,-0.24382,-0.086113,-0.24891,-0.039822,-0.10343,-0.14317,0.093215,0.073926,0.37817,0.51775,0.68684,0.78437,0.43336,0.49791,0.32152,0.038483,-0.015634,-0.15349,-0.098102,-0.10945,-0.079519,0.026831,-0.073271,-0.075787,-0.03789,0.11573,-0.10412,-0.23888,0.14173,-0.13798,-0.10436,0.055166,-0.17153,0.057683,-0.042613,-0.072724,0.13361,-0.1485,0.042885,0.044965,-0.073827,0.1665,-0.079259,0.046107,0.0046945,-0.075783,0.084493,-0.08492,-0.045766,-0.051775,0.071868,0.011432,-0.073481,0.11678,-0.032299,0.025391,0.074166,-0.098841,0.14519,-0.011263,-0.054769,0.070939,-0.076449,0.08088,-0.045015,-0.01435,0.041707,-0.080965,-0.0013401,0.029923,0.082107,-0.00039012,0.054411,0.30362,0.32085,0.19492,-0.43407,-0.55348,0.019436,-0.16343,-0.10408,0.21227,-0.1522,-0.028688,0.013776,0.03026,0.088471,0.034436,1.1862
-1.8257,1.7689,1.3552,-0.63942,-1.7058,-1.1606,0.56973,0.60335,0.0076857,-0.006356,-0.42757,-0.59029,-0.50969,-0.18193,-0.086238,-0.10617,-0.17732,-0.077462,0.14865,-0.15146,-0.26142,-0.025304,0.056374,-0.16775,-0.239,0.12804,-0.013012,-0.38844,0.1184,0.1266,-0.20968,0.21464,0.35361,0.14182,0.1688,0.5858,0.55119,0.23901,0.34092,0.30686,0.20569,0.04705,0.046061,0.051901,-0.11791,-0.098136,-0.12744,0.068479,-0.018768,-0.25509,0.057205,0.068462,-0.041821,0.014259,0.010086,-0.068322,-0.033756,0.03913,-0.078376,-0.086151,-0.083339,0.11376,-0.049671,-0.18677,0.10195,-0.18371,-0.031474,0.047241,-0.098632,0.089446,-0.071289,-0.0048092,0.081728,-0.033391,0.20711,0.24974,-0.049616,-0.12278,-0.22372,-0.067542,-0.10311,-0.23731,0.0032395,-0.046348,0.014572,-0.015373,-0.04075,0.044353,-0.068859,0.052728,0.052723,-0.00048142,-0.033595,0.056165,0.19182,-0.13954
1.0931,1.3753,0.7866,-0.31991,-1.5026,-1.8383,-0.30739,0.99553,0.23219,-0.19977,-0.10633,-0.12634,0.070177,-0.42044,-0.26556,0.10449,-0.25067,0.12292,-0.15395,-0.39394,0.53415,-0.043583,-0.63183,0.12527,0.12121,-0.15941,-0.022354,-0.20831,0.082784,0.29714,-0.18687,0.014119,0.49701,0.13672,-0.018019,0.55411,0.57239,0.18098,0.0039476,0.21131,0.1881,0.22089,0.18042,-0.10195,0.23484,-0.042228,-0.29796,0.10708,-0.014709,-0.10372,-0.0082126,-0.082651,-0.079595,0.16411,0.093541,-0.19967,-0.071328,0.12021,0.089789,0.033377,-0.091674,-0.16468,0.18092,0.14134,-0.28926,-0.01879,0.17943,-0.078596,0.088076,-0.14858,-0.1272,0.43128,-0.07668,0.1433,0.31941,-0.37673,0.14604,-0.095945,-0.59999,0.26149,0.11822,-0.62785,0.10844,0.34627,-0.29787,-0.13202,0.01473,0.075324,0.069802,-0.055822,-0.1089,0.079509,0.083656,-0.14527,0.087684,0.64767
0.35275,1.6993,0.83779,-0.2729,-1.026,-1.8999,-0.49994,1.0498,0.078629,-0.15848,0.15271,-0.50253,-0.27559,-0.084958,-0.51881,-0.085591,0.27123,-0.39416,0.042149,0.25673,-0.66542,0.068313,0.23749,-0.44724,0.0078524,0.13369,-0.34299,-0.041669,0.10159,-0.28016,-0.16601,0.51822,0.34097,-0.23929,0.35052,0.29921,0.27701,0.3375,0.040852,0.69587,0.53336,-0.33383,-0.0501,0.59313,0.053927,-0.2033,0.1668,-0.093419,-0.09804,-0.060035,0.018765,-0.19537,-0.12735,0.37371,-0.095601,-0.27838,0.14897,-0.11238,0.15106,-0.17225,-0.24862,0.42854,-0.26644,-0.039215,0.094267,-0.16434,-0.078861,0.15632,0.10854,-0.42689,0.17829,-0.014526,-0.1857,0.48764,0.11334,-0.0047755,0.010404,-0.26156,-0.10586,-0.092414,-0.31467,-0.0063814,0.14242,-0.02322,-0.076521,-0.084778,0.12323,-0.05242,-0.19375,0.036197,0.12985,0.078286,-0.077416,-0.061048,0.11451,0.095824
0.64672,-0.97389,0.75919,0.71968,-2.6644,0.062236,1.6974,-1.0627,0.19851,0.032245,-0.4447,-0.81055,0.3639,0.0002227,-1.2203,1.0751,0.067507,-0.10426,-0.46319,-0.073463,0.14227,-1.2958,1.1546,0.62511,-0.28475,-0.062133,0.064156,0.51256,1.0751,-0.21509,-0.32559,1.8842,-0.64276,-0.85899,1.3682,-0.031168,-1.4203,0.68459,0.24078,-1.2206,0.48929,1.3353,-0.76606,-0.82058,-0.012094,0.17424,0.27177,0.05501,0.10175,-0.78171,0.44023,-0.19832,0.14232,-0.02437,-0.66455,0.65999,0.21969,0.24835,-0.55463,-0.10125,0.094776,-0.10466,0.05099,-0.071819,0.71245,-0.39525,0.50438,0.1536,-0.5734,-0.09485,-0.36381,0.81386,-0.68317,-0.47369,0.24846,-0.074612,0.1406,-0.45432,0.28653,-0.12241,0.23913,-0.12077,-0.10154,0.19022,-0.68277,1.0815,-0.33911,-0.75975,1.771,1.7254,0.67313,-0.53425,-1.4065,-1.8773,-0.95935,2.9969
0.59689,0.094683,-0.28819,0.15784,-0.082814,-1.0878,0.11046,0.55361,-0.61687,-0.28146,0.14663,0.15484,-0.24883,-0.16392,0.04973,-0.34343,0.1164,0.20421,-0.41151,-0.14263,0.14299,-0.094065,-0.11475,0.04884,0.36906,-0.06301,0.3126,0.2732,0.15856,0.47318,0.4397,0.59598,-0.24318,0.12646,0.5112,-0.019998,-0.0064906,0.090803,0.13717,-0.11693,-0.21517,-0.40682,0.31547,0.22236,-0.56367,0.10065,0.022291,-0.095475,0.24731,0.0080231,-0.22457,0.0023798,0.082504,0.15005,-0.42471,0.18332,0.20532,-0.58133,0.19466,0.20001,-0.29737,-0.11364,0.39602,0.03006,0.019623,0.12165,0.21295,0.23854,-0.39955,-0.1133,-0.15999,-0.1966,-0.19971,-0.16157,0.35875,-0.14705,-0.13298,0.055075,-0.16688,0.05597,0.16541,-0.25507,0.08127,0.32613,-0.47569,0.1187,0.027049,0.48484,0.9995,0.43381,1.2858,-0.29158,-1.9415,-1.6046,-0.64554,2.4292
0.11536,0.53813,0.62149,0.067544,-0.27866,0.057138,-0.19418,-0.67399,-0.5661,-0.398,-0.13411,0.16033,-0.11162,-0.32592,-0.058027,0.070025,0.049291,-0.0021688,-0.19271,-0.15411,0.02726,-0.10342,-0.17929,0.084713,0.12107,-0.17896,-0.18658,0.024608,-0.067488,-0.17192,-0.07221,-0.15204,-0.19071,0.055218,0.044406,-0.19319,-0.066398,0.17732,0.10253,0.046118,0.19604,0.14248,-0.061745,0.10601,0.42592,0.31287,0.070599,0.19068,0.26769,0.015811,-0.03441,0.19283,0.17284,-0.021365,-0.021531,0.10974,0.15205,0.005634,-0.090977,0.071266,0.10867,-0.057942,0.01174,0.11813,-0.0061384,-0.044231,-0.028436,-0.052099,0.098986,0.16374,0.014575,-0.0061777,-0.00084871,0.015789,0.15096,-0.012831,-0.21889,0.017217,0.095129,-0.024477,0.10237,0.019642,-0.086836,0.14072,-0.067052,-0.40358,-0.061971,0.13468,-0.097413,-0.01229,0.10048,-0.050479,0.021589,0.11396,-0.12432,-0.59148
0.41511,1.3958,0.25592,-0.3502,-1.1441,-1.2535,0.79056,0.16828,-0.45491,0.25807,-0.39545,-0.5168,-0.018048,-0.076853,-0.10436,-0.034147,-0.091445,-0.078243,-0.0898,-0.052665,-0.11327,-0.17109,-0.052483,-0.025945,-0.1671,-0.1409,-0.013066,-0.15955,-0.095708,-0.00054539,-0.0069576,0.15584,0.10311,0.18235,0.3121,0.28924,0.43332,0.39415,0.2014,0.29508,0.27393,0.075439,0.080832,-0.039464,0.046558,0.024869,-0.1627,0.051267,-0.024812,-0.074495,-0.018593,0.027011,0.030515,-0.13265,0.076128,0.091104,-0.093259,-0.0069178,0.04244,-0.047275,-0.057038,0.13766,0.038647,-0.13182,0.016154,0.12552,0.061398,-0.065027,-0.016166,0.11667,0.017172,-0.063804,0.055602,0.23341,0.15406,0.02256,0.095891,-0.11928,-0.22043,-0.052792,-0.045366,-0.070565,-0.12187,0.024432,0.07229,-0.072332,-0.11533,0.053537,0.11741,-0.033572,3.4642e-06,0.03507,-0.0096949,0.058009,0.12069,-0.12905
0.70208,-0.11779,0.34735,-0.024229,-1.1411,-1.1268,-0.80792,-0.43682,-0.16709,-0.13535,-0.065107,-0.1228,-0.14476,-0.085172,-0.038227,-0.054842,-0.031598,-0.098101,0.0041748,-0.054072,-0.12924,-0.035297,-0.17939,0.10086,0.042117,-0.061255,0.15248,0.1317,0.19274,0.3085,0.2861,0.27602,0.38843,0.20737,0.095215,0.22829,0.1353,-0.0002816,0.052228,0.080853,-0.056836,-0.023645,-0.064594,-0.082372,0.015341,-0.032677,-0.077873,-0.015044,0.043612,-0.04378,0.032712,0.07227,0.05981,-0.0065072,0.014319,0.2128,-0.22408,-0.18235,0.11221,-0.00070684,-0.12102,-0.22145,-0.22248,-0.14841,0.066902,-0.073154,-0.066265,-0.034847,-0.036786,0.034811,-0.074343,-0.037199,0.016338,0.032545,-0.043774,-0.014548,0.0081556,-0.013117,-0.01696,-0.068993,0.024772,0.076346,-2.4648e-05,-0.09904,0.01646,0.1053,-0.013294,0.0059033,0.075799,0.12084,0.050747,-0.0069848,-0.021457,0.12615,0.39388,0.19483
0.74407,2.1955,-0.28351,-1.1254,-0.70783,-1.5304,0.20151,0.97686,-0.20384,-0.33983,0.2857,-0.17967,-0.89918,-0.11772,0.25396,-0.19908,-0.19476,0.1686,-0.13331,-0.17078,0.058689,-0.25915,-0.044177,-0.030927,-0.016198,0.057723,-0.19005,-0.209,-0.01574,0.20542,-0.17748,-0.093758,0.34231,0.031146,0.14931,0.57513,0.2791,0.035152,0.50504,0.40507,-0.058396,0.42052,0.16979,-0.052394,0.26024,0.014505,-0.044518,-0.15388,0.077771,0.18514,-0.26767,-0.33699,0.24095,0.272,-0.30261,0.090759,-0.06168,0.21466,0.059961,-0.43421,0.19032,-0.012659,-0.049329,-0.19493,0.17309,-0.037631,-0.14208,0.22021,-0.35941,0.0042594,0.029255,-0.15339,0.305,0.25959,0.082967,-0.099747,-0.2493,-0.097756,-0.047414,-0.1942,-0.011974,-0.010055,-0.22484,0.028954,0.11422,-0.16557,0.095496,0.013698,-0.37543,0.22735,0.11693,-0.20652,0.13039,-0.023935,-0.091302,0.52939
-2.1552,1.6838,1.4638,-0.61022,-1.0581,-1.1794,-0.49599,0.89882,0.25758,-0.30559,-0.16217,-0.20257,-0.53865,-0.23312,0.13825,-0.2217,-0.090399,0.010528,-0.021732,-0.085476,-0.081415,-0.0031586,-0.15832,-0.015858,-0.10191,-0.17183,-0.10354,-0.18444,0.043177,-0.090328,-0.27579,0.10861,0.23416,0.09909,0.2587,0.47131,0.34189,0.27288,0.54413,0.35508,0.17549,0.16602,0.11013,0.10759,-0.12864,-0.012898,0.16657,-0.20324,-0.22868,0.27233,0.11955,-0.17333,0.042791,-0.0029093,0.041208,0.1503,-0.15572,-0.018187,0.12394,-0.11362,-0.093859,-0.012223,0.0085289,-0.1032,-0.083978,0.015735,-0.097994,0.004451,0.14959,-0.084778,-0.056291,0.097446,0.070268,0.12008,0.14481,0.13417,-0.1649,-0.20284,-0.0082165,-0.15229,-0.18334,-0.082289,0.05157,-0.092259,-0.0085811,0.059534,-0.12155,0.024726,-0.059013,0.080018,-0.079651,-0.094066,0.20114,-0.027753,0.045128,0.6761
0.33846,1.1017,1.8836,-0.03166,-2.1535,-1.8049,-0.81638,0.61748,0.36284,-0.26395,-0.3744,0.20377,0.38371,-0.60007,0.16159,0.066517,-0.34616,0.15869,-0.14994,-0.15508,-0.085642,0.048207,-0.17804,-0.15146,0.1095,-0.20022,-0.086378,0.030248,-0.13274,0.053005,0.10365,-0.096344,0.35192,0.37928,-0.070902,0.41991,0.50765,0.17782,0.36153,0.24155,0.10962,0.2152,0.080199,0.099079,-0.049755,-0.061138,0.13188,-0.21547,-0.11836,0.068235,-0.13319,-0.028239,-0.037145,-0.11709,0.18487,0.0097579,-0.13649,0.16211,-0.20177,0.092894,0.18527,-0.26329,0.064518,-0.052759,-0.095974,-0.079422,0.098871,-0.079695,-0.23,0.14309,-0.061045,-0.090539,0.23646,0.40083,0.13937,-0.21054,-0.16295,-0.078873,-0.22175,-0.022766,-0.090331,-0.28381,-0.0028789,0.071532,0.036582,0.02794,-0.16138,-0.064305,0.14427,-0.0098929,-0.028124,0.088346,-0.083864,-0.10613,0.1406,0.27263
0.2777,0.034692,0.41315,0.79203,0.47821,-0.15754,-0.43471,-0.33002,-0.41614,-0.74903,-0.52604,0.21919,0.3417,-0.20234,-0.33185,0.064359,0.25368,0.024726,-0.29146,-0.34365,-0.15478,-0.04849,-0.031862,0.019343,-0.038902,-0.12181,-0.02374,0.013114,-0.14938,-0.15668,0.023695,-0.061713,-0.30071,-0.16411,-0.0044816,-0.26954,-0.27635,0.13512,0.084337,-0.19121,0.050893,0.24979,-0.0030952,-0.069039,0.18796,0.27008,0.19498,0.22805,0.194,0.081624,0.17886,0.20018,0.029909,0.2043,0.32413,-0.11061,-0.15504,0.29942,0.16711,-0.16268,0.044874,0.13488,-0.095002,-0.031829,0.15439,0.029257,-0.10739,8.764e-05,0.048649,-0.019413,0.06021,0.092797,-0.080436,-0.074811,0.083909,0.046611,-0.020411,-0.0079538,-0.022229,0.061045,0.13106,0.060247,0.09935,0.091047,-0.18869,-0.25226,0.011504,0.04857,-0.077263,0.021063,0.078228,-0.10304,-0.078337,0.14902,0.073205,-0.48599
-0.94873,2.3492,1.2455,-1.3257,-2.6521,-0.69341,1.4274,0.15375,-0.36023,0.17944,-0.77419,-0.8915,0.042064,0.31427,-0.93043,-0.21281,0.59147,-0.48787,0.33934,-0.16943,-0.21104,-0.57878,-0.27032,0.32844,-0.26238,0.058555,0.080533,0.35048,0.32022,0.31024,0.41315,0.43905,0.20596,0.16784,0.33563,0.21248,0.017614,-0.086684,0.16239,-0.017229,-0.26953,0.16902,0.0014203,0.093287,-0.047781,-0.47642,0.20279,0.2762,-0.16963,-0.056675,0.021323,-0.087142,-0.10469,-0.0186,0.025711,-0.071132,-0.18655,0.16466,0.019905,-0.2215,0.34944,-0.28625,-0.07487,0.16854,-0.24057,0.089517,0.0779,-0.22582,0.017419,0.050765,-0.10486,0.14124,-0.062989,0.08979,-0.077323,0.2757,0.35375,0.096885,0.1916,-0.16879,-0.51081,-0.27821,-0.0202,-0.028708,-0.17671,0.050349,0.18685,-0.27051,0.18872,0.15427,0.013199,0.026044,-0.28715,0.31009,0.54403,-0.95186
-1.9503,0.23129,-1.3821e-05,-0.24286,0.16796,-0.79617,0.062707,0.25622,-0.93464,0.63412,0.037747,-0.53917,0.49669,-0.38357,-0.18381,0.030518,-0.24583,0.21941,0.13636,-0.4097,-0.16562,0.1149,-0.039676,0.27828,-0.73316,0.1525,0.67159,-0.70615,0.8034,0.51273,-0.13284,0.33765,0.26039,0.38367,-0.053514,0.29951,0.0097845,0.26527,0.0030738,-0.54318,0.35516,0.11159,-0.065289,-0.12218,-0.10848,0.31675,-0.044281,-0.15278,0.11287,-0.086063,-0.12175,0.11596,0.10889,-0.18268,-0.10047,0.22509,0.15868,0.28032,-0.1731,-0.40264,-0.02702,-0.012496,0.25843,-0.087773,0.056354,0.36814,0.086777,0.11041,-0.23519,-0.3355,-0.050628,-0.15553,0.022466,-0.0099767,-0.26908,0.1711,0.086461,-0.12518,0.12391,-0.00022,0.074465,0.12708,-0.15672,0.068792,0.10357,-0.035556,-0.027417,0.21851,0.089713,0.56963,1.5912,0.23737,-0.49961,-0.66199,-1.4105,-0.40867
1.1362,-0.043839,0.56706,1.1379,-0.057815,-0.98836,-0.65269,-0.74788,-0.74637,-0.13363,0.04353,0.076657,0.075194,-0.065617,-0.056765,-0.16733,-0.21165,-0.17125,-0.23964,-0.10066,-0.094437,-0.13575,0.12518,0.069665,-0.047264,0.10791,-0.096227,-0.25828,0.002143,-0.020201,-0.13961,0.10033,-0.0039769,-0.38039,-0.021237,0.39463,-0.099969,-0.37214,0.21079,0.38844,-0.024478,0.09025,0.41413,0.10903,-0.038304,0.39207,0.40646,-0.036853,-0.15658,0.061827,0.32039,0.33676,-0.019041,-0.21085,0.012971,0.053396,-0.059818,0.018704,-0.045269,-0.0080023,0.079349,-0.28442,-0.22104,0.18967,0.10514,0.039222,-0.064223,-0.027756,0.32204,0.022097,-0.14751,0.32163,0.3031,0.16394,0.13822,-0.14185,-0.065392,0.07749,-0.29487,-0.28735,0.10205,-0.079794,-0.078395,0.25259,-0.13052,-0.2723,0.13785,-0.072301,-0.22246,0.093573,-0.022985,-0.29737,-0.046721,0.23731,0.088185,-0.38064
0.35888,1.5984,-0.26587,-1.6223,-1.5525,-0.89744,0.88667,0.48773,-0.20143,0.0095058,-0.19053,0.16903,-0.35596,-0.37935,0.13075,-0.15317,-0.077291,-0.085011,0.078993,-0.16494,-0.25297,0.10547,-0.054641,0.20605,-0.1995,-0.30841,0.10214,0.075934,-0.12953,0.052075,0.11336,-0.074724,0.40773,0.21791,0.0060457,0.51684,0.40157,-0.091372,0.54744,0.29776,-0.1554,0.36086,-0.092405,-0.038949,0.50893,-0.23713,-0.10754,0.18513,-0.14659,0.045825,-0.21358,0.28222,-0.051963,-0.36506,0.14316,0.1302,0.10068,-0.1877,-0.0095921,0.06026,0.11473,0.14547,-0.39707,-0.077504,0.38029,-0.32688,-0.14235,0.24341,-0.12232,0.018743,-0.20084,0.095328,0.52319,-0.18858,0.17936,0.086979,-0.42961,0.13041,-0.21094,-0.11973,0.018896,-0.22634,-0.013544,-0.066396,0.17854,0.018834,-0.45844,0.022429,0.284,0.08064,0.057283,-0.45486,-0.014503,0.51784,-0.11073,-0.73507
3.4976,-0.71884,-0.36956,-0.64937,-1.2383,0.64061,0.4101,-0.40556,-0.1842,-0.29856,-0.61619,-0.23736,0.027874,-0.17726,-0.098689,-0.051365,0.050225,-0.094236,-0.12398,-0.091051,-0.0040774,-0.048889,-0.20238,-0.083348,-0.053727,-0.11924,-0.14227,-0.024897,-0.098333,0.00022303,0.093078,0.034923,0.30367,0.20623,0.37748,0.56737,0.24585,0.27338,0.38898,0.23899,0.080582,0.10265,0.07822,-0.088415,-0.06432,-0.0011894,-0.080314,-0.034344,0.04477,0.001403,0.0028822,-0.049467,0.0029221,0.046735,-0.011413,0.061514,-0.017797,0.022177,-0.04471,-0.081687,0.12542,-0.003343,-0.085497,-0.065727,0.064955,-0.012127,-0.14381,0.056609,0.03792,0.0084479,-0.066116,0.0095733,0.16376,0.043326,0.18829,0.12073,-0.24536,-0.15376,0.019889,-0.13568,-0.17643,-0.048389,0.0575,-0.032148,-0.068171,0.10947,-0.025434,-0.068076,0.0065329,-0.019233,0.024484,0.04068,-0.059413,-0.033911,0.18486,0.23569
0.37829,0.062782,-0.22954,-1.7963,-1.2235,-0.05641,-0.46119,0.028455,-0.27646,-0.11129,-0.24361,-0.30458,-0.18325,-0.28149,0.019787,0.22354,0.52759,0.61644,0.84055,0.61913,0.59997,0.4303,0.078741,0.085962,-0.074602,-0.12634,-0.034349,-0.054628,-0.069303,-0.018352,-0.092631,-0.0014717,-0.018935,-0.089274,0.028678,-0.055068,-0.095853,0.080774,-0.028265,-0.041045,0.010784,-0.081192,0.019526,0.00078177,-0.040995,0.042341,-0.027226,0.031289,-0.0069131,-0.058442,-0.0031968,-0.053183,0.0545,0.050132,-0.085839,0.029748,0.040918,-0.011536,0.059769,-0.070022,-0.06142,0.076896,-0.050288,0.088705,-0.054856,-0.079458,0.11036,-0.12946,0.055918,0.008389,-0.063781,0.059521,-0.037787,0.061798,0.034144,-0.099766,0.056622,0.0018127,-0.020984,0.070889,-0.023432,0.29514,0.22025,-0.050738,-0.064438,-0.3056,-0.26282,0.019714,0.029182,-0.10864,0.087336,-0.092192,0.051883,0.15677,-0.16755,0.5547
1.0742,0.44036,0.19996,0.13054,-0.22471,-0.61727,-0.62956,-0.62929,-0.46677,0.036435,0.043923,-0.19686,0.09056,0.1004,-0.16932,0.051022,-0.082513,-0.52516,-0.17016,0.20565,-0.018655,-0.12436,-0.13664,-0.13941,0.098912,0.1287,-0.11809,-0.1987,-0.2024,-0.17374,-0.01531,0.0027622,-0.14336,-0.14935,-0.021424,0.032373,-0.038644,-0.077144,0.051179,0.1633,0.061044,-0.042683,0.10436,0.27711,0.20867,0.13646,0.16699,0.084739,0.12421,0.31701,0.13458,-0.084209,0.16797,0.23203,-0.071141,-0.067083,0.12471,0.092385,-0.017424,-0.014637,0.1198,0.14751,-0.10794,-0.19631,0.13264,0.26571,-0.068888,-0.19488,0.11013,0.16943,-0.060751,-0.036369,0.063882,0.034183,0.079149,0.03375,-0.076338,-0.031369,-0.093476,-0.11079,0.16561,0.1281,-0.22326,-0.13913,0.11058,-0.046901,-0.17869,0.046568,0.12924,-0.066976,-0.07664,0.073642,0.11283,0.099721,-0.0063264,-0.31729
0.33545,1.3203,1.2713,-0.38889,-1.8408,-1.7872,-0.036972,1.2506,0.29625,-0.36451,-0.39837,0.43766,-0.5834,-0.99338,0.41172,-0.13707,-0.16685,0.018594,-0.16596,0.12205,-0.17374,-0.35059,0.12032,-0.03011,-0.13066,-0.096252,-0.19765,0.0561,-0.18454,-0.049533,-0.018775,-0.17493,0.33736,-0.0518,0.14991,0.70243,0.037716,0.20461,0.67885,0.12015,0.14549,0.41461,0.091542,0.14391,0.013479,0.039663,0.14969,-0.25798,0.048132,0.039564,-0.24297,-0.0051876,-0.088546,0.065526,0.17307,-0.040255,-0.17571,0.019369,0.14436,-0.1521,0.085232,-0.073686,-0.33235,0.30067,0.04193,-0.33047,0.1001,-0.063962,-0.052076,0.1651,-0.12202,-0.083694,0.053782,0.38897,0.17482,-0.24563,0.023802,-0.19112,-0.13006,-0.12413,-0.044569,0.030562,-0.27472,-0.062113,0.10302,0.083995,-0.17104,-0.017769,0.0080733,0.093637,0.1863,-0.47129,0.10269,0.23692,-0.35934,0.79177
