-0.47689,0.14011,0.75711,-0.010885,-0.7068,-0.5399,-0.070662,0.087494,-0.23528,-0.15748,0.57419,0.62018,-0.2023,-0.47001,0.10796,0.34081,-0.097046,-0.193,-0.023533,-0.10377,0.13697,0.11008,-0.3538,0.23433,0.4867,-0.61142,-0.10311,0.83053,-0.50549,-0.67962,0.7061,0.20782,-0.36433,0.21367,-0.090994,-0.2023,0.33168,-0.059509,-0.17789,0.37093,0.04439,-0.30518,0.040312,0.14492,0.15074,-0.020052,-0.36351,0.18563,0.44449,-0.42873,-0.20189,0.35438,-0.39764,-0.070649,0.7476,-0.32907,-0.62958,0.51127,0.18456,-0.45179,0.12332,0.21438,-0.22722,-0.11008,0.14632,0.11244,-0.082635,-0.14501,0.054236,0.13277,-0.013369,-0.021315,0.008424,-0.083728,0.021486,0.13243,-0.087174,-0.10102,0.094103,0.036462,0.066866,-0.010853,-0.27279,0.19936,0.32389,-0.5663,-0.25296,0.60039,-0.052546,-0.28707,0.31749,-0.030531,-0.13069,0.12345,-0.28886,-0.70116
-2.9847,-1.0939,0.7969,-0.21558,-0.495,1.6932,-2.2447,-0.0078668,2.1707,-0.92142,-0.32409,1.0387,-0.73705,-1.4234,1.6142,0.84602,-1.6818,-0.1689,2.5537,-3.3508,1.6632,1.3726,-2.9366,3.1915,-3.6658,1.6782,4.0653,-6.5862,3.8668,0.24565,-2.9469,3.8766,-3.4016,2.0331,-0.43348,-1.4181,2.4806,-2.4194,2.1158,-1.6928,-0.30405,1.4066,-0.7198,1.0944,-2.3121,1.7306,-1.0025,1.5585,-0.91133,-1.1904,2.5107,-2.8253,3.0949,-2.0912,-1.2943,3.4394,-1.9257,0.027948,0.36211,-0.13743,-0.098443,0.036201,-0.015491,0.23685,0.49706,-1.1892,0.60603,0.4274,-0.93936,-0.6743,1.7727,-1.0485,0.21798,0.69743,-2.0832,3.2028,-1.3758,-2.2788,3.11,-0.96148,-0.24282,-0.28999,0.87317,-0.43044,-0.64889,1.144,-0.6413,0.7971,0.11111,0.9147,-1.4241,-1.3997,-0.74897,0.1934,2.359,4.5246
-0.43203,0.20072,0.83347,-0.13862,-0.7519,-0.052271,0.10171,-0.49689,-0.26462,0.20982,0.30081,0.44311,-0.093235,-0.48897,0.25389,0.32171,-0.18788,-0.1216,-0.19624,0.050527,0.38645,-0.16904,-0.18338,0.26635,-0.1553,-0.1739,0.359,0.068309,-0.3326,-0.086733,0.22214,0.13412,-0.18894,-0.16924,0.21405,0.24151,-0.11214,-0.15308,0.15756,0.15845,-0.086655,-0.044154,0.067704,0.040342,0.058701,0.0079843,-0.08081,-0.018443,0.0098188,-0.084352,-0.031877,0.071119,-0.047185,-0.080291,0.10483,0.016396,-0.13639,0.039178,0.030416,-0.12227,0.022822,0.14562,-0.019647,-0.13344,-0.018419,0.04983,0.032242,-0.027617,-0.12091,0.15351,0.209,-0.43344,-0.18341,0.61256,0.074986,-0.4109,0.06804,0.066071,-0.15331,-0.018604,0.073843,0.19257,0.036131,-0.18186,0.094388,-0.044528,-0.25559,0.18947,0.073037,-0.051974,0.27484,-0.2323,-0.17236,0.3291,-0.34789,-1.0249
-2.7187,-1.2228,0.27314,1.1026,-1.7059,-0.21189,1.3696,0.13698,-0.24542,-0.34763,-0.19417,0.66334,0.0095071,-1.0419,0.22587,0.78443,-0.32736,-0.1153,0.22716,-0.010666,-0.05636,0.023912,0.071821,-0.34907,-0.049699,0.37831,-0.28114,-0.064536,0.30418,-0.1051,0.040982,0.012767,-0.14888,0.14614,0.095704,-0.068169,-0.050875,-0.046544,0.11905,0.18573,-0.20364,-0.043702,0.3333,-0.20336,-0.090665,0.33452,-0.053557,-0.068183,-0.062513,-0.02233,0.18057,-0.1225,-0.019932,-0.020276,-0.13836,0.21417,-0.13597,-0.15521,0.21244,-0.19381,-0.037576,0.20997,-0.12242,-0.073036,0.031304,0.092329,0.080533,-0.14905,-0.089664,0.11162,0.079542,-0.041191,-0.045111,-0.00032532,0.060601,-0.034087,-0.1109,0.14456,-0.015682,-0.15248,0.24938,-0.15296,-0.0054391,0.20713,-0.30985,0.46991,-0.076401,0.26939,0.7699,-2.0741,0.31192,1.5075,-2.1439,0.70909,0.38768,0.066258
4.8635,1.7808,-1.3018,-2.9619,0.20714,0.57347,2.8287,-1.8162,-0.46274,1.3552,-1.7355,0.096181,0.41992,0.60607,-0.5785,0.58607,-0.48279,-0.0062988,0.81707,-1.1374,0.68893,0.037718,-0.68642,1.0658,-0.84031,0.0052437,0.58177,-0.51554,0.30951,-0.32634,0.5396,-0.42084,0.30048,-0.01316,0.23045,-0.023533,-0.065078,0.32829,-0.54033,0.70785,-0.84992,0.46928,-0.38364,-0.062583,0.42082,-0.77123,0.34251,-0.0073889,0.04172,0.017936,-0.32365,0.69172,-0.49114,0.00016211,0.44997,-0.58409,0.17511,0.20947,-0.27804,0.43624,-0.60546,0.37724,0.16045,-0.50873,0.42568,-0.27761,0.21484,-0.020363,-0.20973,0.087784,0.38523,-0.19075,0.030466,-0.091747,0.2326,-0.68794,0.23798,0.20189,-0.3091,0.1304,-0.088588,0.82514,-1.3179,0.9963,-0.21132,-0.12159,0.13245,-0.51919,0.9571,-0.58375,-0.071995,0.14314,-0.49958,1.6288,-0.50155,-2.6319
5.4239,0.35816,-4.7076,3.7728,-2.1662,-1.9063,4.4414,-0.13741,-1.9145,-0.47577,2.3802,-1.9878,-0.36362,0.77008,0.098232,0.19616,0.67528,-2.7718,3.3818,-0.73811,-2.3846,2.8451,-1.4146,-0.21299,0.98871,-0.15189,-0.82942,0.10182,1.0192,-0.67489,0.43901,-1.0234,1.4205,-0.40514,-0.42907,0.52361,-0.27424,0.26778,-0.42808,0.6266,-1.1962,1.5759,-1.434,0.93587,-1.0387,1.0659,-0.83107,0.16601,0.19262,-0.26839,1.1358,-2.2604,2.0762,-1.0737,0.1049,1.6213,-3.9907,5.2555,-3.5584,-0.18576,2.2097,-1.5583,0.77056,-0.61715,0.372,-0.51563,1.0258,-0.91496,0.18661,0.079458,0.4676,-1.0675,1.7799,-1.606,0.36133,1.0463,-2.3668,1.7926,-0.47193,-0.13608,0.84665,-1.7457,1.664,-0.16383,-1.4352,2.1107,-1.4633,0.50561,-0.28,0.5277,0.064306,-1.4905,1.701,-0.51911,-0.15127,0.21657
-0.81133,-0.41141,-0.01149,-0.28233,-0.57345,-0.27974,0.0036766,0.18235,0.42263,0.25502,-0.26054,-0.052672,0.44875,-0.0041409,-0.26354,0.1098,-0.2805,-0.27899,0.53572,0.1285,-0.28637,0.23984,-0.25592,-0.17226,0.96565,-0.24199,-1.2885,0.67026,0.97526,-0.94708,-0.53015,0.79205,0.10206,-0.52193,0.1793,0.38389,-0.25182,-0.21004,0.30451,0.044807,-0.24467,0.22477,0.27699,-0.30367,-0.15294,0.38743,-0.020936,-0.41966,0.29667,0.4512,-0.43022,-0.27414,0.40356,-0.049031,-0.35352,0.13661,0.13989,-0.16119,-0.024237,0.15801,0.045541,-0.22765,-0.20761,0.25882,0.22478,-0.34416,-0.13278,0.346,-0.010333,-0.16396,0.17385,-0.027863,-0.10085,0.14239,-0.23379,-0.22218,0.41987,0.15225,-0.23628,0.098768,0.017517,-0.047009,0.17394,-0.3358,-0.4325,0.43976,0.32312,-0.37768,0.021381,0.35482,-0.26852,-0.31914,0.46918,0.17405,-0.47803,-1.1301
-0.28262,0.084312,0.45124,-0.62577,-0.77947,-0.37964,0.15408,-0.16055,0.22645,0.89302,-0.40923,-0.1061,0.47354,-0.25784,0.13963,-0.46803,-0.12084,0.71353,-0.52982,0.20484,0.3031,-0.70977,0.23334,0.25496,0.26328,-0.53257,-0.70144,1.2005,-0.19679,-0.30797,0.46508,-0.94775,1.106,0.42167,-1.4511,0.82412,0.22237,-0.21063,0.23565,-0.54449,0.45689,0.13203,-0.20583,0.018343,-0.51798,0.4896,-0.016654,-0.55478,0.63785,-0.19243,-0.36699,0.45406,-0.12839,-0.19224,0.17267,0.018184,-0.13196,-0.11157,0.096104,0.29422,-0.16639,-0.30228,0.36395,0.060076,-0.31258,0.34226,0.023111,-0.62714,0.4007,0.3293,-0.65537,0.32561,0.206,-0.50937,0.34584,0.15857,-0.37228,0.069557,0.11051,-0.06885,-0.010797,-0.1463,0.17908,0.35937,-0.35882,-0.0038749,0.32414,-0.60141,-0.18401,0.72203,-0.026859,-0.44492,0.3889,0.10632,-0.3951,-0.89652
4.0531,0.50522,-3.0427,1.0197,-2.2495,0.34719,3.8704,-1.6928,0.014778,-0.78036,0.44975,0.54268,-1.644,1.4514,-0.22711,-0.39989,0.28071,-0.053402,0.56575,-0.8356,0.12036,0.98293,-1.7056,1.3109,0.16484,-1.4801,1.6013,-1.0754,1.2538,-1.9327,2.3464,-1.7917,1.0265,0.36699,-1.2918,1.453,-1.0086,0.66998,-0.407,-0.10198,-0.11737,0.79162,-1.2659,0.93005,-0.87509,1.0206,-1.1433,0.48269,0.57671,-1.0363,0.78523,-0.5742,0.52194,-0.40497,0.74846,-1.1375,0.98036,-0.34695,-0.28202,0.15293,0.46507,-0.84439,0.61326,0.22384,-1.1227,1.3242,-0.76946,-0.13133,0.60205,-0.022438,-0.91737,1.4114,-0.61123,-0.37029,0.503,-0.42573,-0.23917,0.53198,0.22937,-1.4425,1.5259,0.0042067,-1.6323,2.3396,-1.6619,0.28668,0.60675,-0.80554,0.82377,-0.54175,-0.030835,0.27482,-0.16078,0.38566,-0.21462,-0.81489
-4.0118,-1.5112,0.98943,-2.5246,2.4604,1.4263,-2.7155,1.8823,-0.83962,-1.711,1.4963,0.30518,-0.53936,0.57574,-0.030429,-0.1816,-0.13651,0.42949,-0.28441,-0.051143,0.15395,0.026846,0.23692,-0.56028,0.11928,0.41268,-0.65699,0.21427,0.83909,-1.0782,0.95221,-0.53504,0.46126,0.14398,-0.55666,0.5029,0.054607,-0.30789,-0.33871,0.79036,-0.89784,0.30433,-0.047728,-0.034154,-0.040522,-0.19544,0.4874,-0.24035,-0.21297,0.22237,0.097186,-0.029166,-0.27472,0.26586,-0.13044,-0.22182,0.40051,-0.041988,-0.26301,0.20742,-0.055254,-0.15061,0.32569,-0.26533,0.058277,0.16536,-0.31331,0.24158,-0.13031,0.31151,-0.4673,0.22573,0.45188,-0.61474,0.24911,0.39827,-0.58683,-0.24277,0.22772,0.091514,-0.040395,0.018613,0.10643,-0.037568,0.063018,-0.36299,0.59784,-0.36877,0.11967,-0.094499,-0.010646,0.19928,-0.56182,0.8627,-0.17823,-1.2192
-0.63794,-0.047666,0.5426,-0.4084,-1.3783,0.10171,0.088976,-0.18247,1.2028,0.32097,-0.94479,0.15387,0.38611,-0.28126,0.069224,-0.47917,-0.035547,0.77303,-0.46097,-0.0375,0.50296,-0.35657,-0.12669,0.11123,0.083632,-0.038743,-0.33189,0.12198,0.3337,-0.38613,0.019345,0.46772,-0.75657,0.29686,0.76226,-0.71574,0.32132,0.20293,-0.30641,0.46623,-0.40097,0.24438,0.4437,-0.77407,0.15675,0.39831,-0.50391,-0.088825,0.41782,-0.089775,-0.51824,0.23713,0.30281,-0.40176,0.090611,0.16786,-0.35805,0.051298,0.19302,0.0074988,-0.03747,-0.095798,0.060762,0.0039077,-0.004595,0.16462,-0.083027,-0.13989,0.18003,0.045714,-0.18829,0.084482,0.20033,0.039217,-0.094972,-0.34235,-0.21145,0.59608,-0.14166,-0.80996,0.70972,0.22198,-0.58702,0.63739,-0.13047,-0.5956,0.56306,-0.081673,-0.46432,0.83092,0.067837,-0.78018,0.36241,0.20292,-0.22228,-0.64747
0.20755,0.23202,0.25649,-0.17124,-0.23959,-0.7153,-0.2972,0.15174,-0.21725,1.0025,0.31112,-1.2846,0.78275,0.28388,-0.4687,0.13268,-0.84009,0.7975,0.7499,-1.3173,0.54029,0.625,-1.1021,0.51925,0.30027,-0.65609,0.26114,-0.20082,0.71732,-0.099188,-0.97335,0.65502,0.27281,-0.30404,0.47769,-0.78521,0.10665,1.2242,-0.84595,-0.049128,0.48855,-0.45493,0.29618,-0.18307,-0.065472,0.0097856,-0.1284,0.17705,-0.077251,0.072093,-0.09415,-0.18265,0.16939,-0.036164,-0.10756,0.092445,0.058644,-0.23171,0.21859,0.30862,-0.62663,0.078446,0.44865,-0.29159,0.055095,0.023632,-0.12048,0.093424,0.035153,0.01293,-0.10333,0.033668,0.18551,-0.14589,-0.15763,0.2472,-0.057707,-0.36563,0.23045,0.12883,-0.37266,0.20561,0.24909,-0.27364,0.10777,0.077807,-0.24714,0.2852,-0.09421,-0.20915,0.31567,-0.13088,0.00432,0.19602,-0.26737,-0.73077
1.6043,-0.037742,-1.6798,0.89909,-0.70049,0.46809,0.42071,-0.22386,0.1203,-0.29761,0.83521,-0.74831,-0.057226,0.76421,-0.69177,0.27682,-0.32038,0.54683,-0.48355,-0.026729,0.40556,-0.34518,0.21192,-0.27365,0.23672,0.065071,0.11173,-0.11193,-0.0035169,0.41004,-0.43975,0.09129,0.019113,0.12512,-0.12988,-0.60257,0.81247,-0.56452,0.022874,0.2823,-0.86229,1.4462,-1.3094,0.73034,-0.081498,-0.36319,1.0036,-1.0565,0.47763,0.25557,-0.68982,0.47869,-0.13897,0.17931,-0.2697,-0.082659,0.49978,-0.59895,0.086477,0.37753,-0.25287,0.033442,-0.14927,0.26869,-0.36468,0.56395,0.16979,-0.89498,0.96707,-1.4681,0.98868,-0.17172,-0.17887,0.53358,-0.59179,0.44075,-0.25103,0.16335,0.16947,-0.44107,0.27274,-0.035668,0.2998,-0.54088,0.21371,0.30084,-0.75925,0.8849,-0.21016,0.54698,1.5033,-2.3385,-0.46682,-1.1074,-0.023848,1.0597
2.7004,-0.78877,-4.2779,2.8558,-2.4023,1.1057,3.6556,-3.1343,0.60445,0.083694,-0.37313,-0.2137,-0.44733,1.0155,0.184,-1.1248,1.3491,-0.7476,0.11115,0.2763,-0.39127,0.091155,0.075064,0.45693,-0.95762,0.56191,0.36835,-0.64028,0.15132,-0.10648,0.9801,-0.99006,0.073942,0.90613,-0.75793,0.62318,-0.060467,-0.66843,0.78566,-0.33947,-0.72845,1.1414,-0.51721,-0.77373,1.1909,-1.0323,0.51177,-0.29817,0.35428,-0.21656,-0.38035,1.1715,-1.617,1.2554,-0.090361,-0.62447,0.34264,0.25126,-0.50951,0.12535,0.50905,-0.79816,0.52332,0.18032,-0.96966,1.0125,-0.10542,-0.58949,0.33882,-0.03809,0.58998,-0.91192,1.2218,-0.9778,-0.15295,0.61894,-1.136,1.3956,-1.0821,-0.0097079,1.1739,-1.3099,1.0365,-0.50202,-0.062932,0.75461,-1.5398,1.6057,-0.45893,-0.83796,1.56,-1.6213,0.54343,0.76151,-0.31472,-1.391
-0.638,-0.1234,0.3912,0.46312,-0.30232,-0.71137,-0.16727,0.27625,-0.12188,-0.43685,-0.10161,0.16953,0.21603,0.43588,0.30474,-0.43061,-0.55308,0.27805,0.6268,-0.06681,-0.51343,-0.063423,0.34782,0.041619,-0.34942,-0.044593,0.3621,0.13488,-0.29339,-0.18915,0.11279,0.11412,0.055477,0.061481,-0.099823,-0.26271,-0.030638,0.32767,0.16641,-0.32869,-0.28697,0.34277,0.47064,-0.16432,-0.42091,0.096742,0.35447,-0.016395,-0.22717,-0.0078189,0.14604,0.063235,0.01426,0.017905,-0.033266,-0.079021,0.0032979,0.070988,-0.060182,-0.16604,-0.0061022,0.21936,0.087634,-0.2032,-0.15739,0.15312,0.18302,-0.15171,-0.21792,0.097902,0.16017,-0.13683,-0.13186,0.22159,0.21302,-0.18179,-0.25102,0.076921,0.15942,-0.1604,-0.2026,0.22921,0.28243,-0.246,-0.29939,0.3039,0.3476,-0.23546,-0.26254,0.10767,0.050687,-0.034637,0.17499,-0.12136,-0.37862,-0.63588
-5.9739,-1.933,2.1079,-3.6219,2.2312,2.9305,-3.4522,1.1601,0.19214,-1.0043,0.1188,0.18592,0.72502,-0.46434,-0.059625,0.39622,-0.32608,0.23866,-0.22323,0.0018837,0.34272,-0.23311,-0.12673,-0.051317,0.34875,-0.25419,-0.20101,0.58794,-0.36367,0.013975,0.10582,0.22934,0.21557,-0.35066,0.26691,0.13336,-0.18565,0.12612,-0.31071,0.020563,0.2185,-0.33251,0.012727,-0.08825,0.01619,0.0012573,-0.081985,0.21868,-0.32774,0.28554,0.23163,-0.56701,0.246,0.032852,0.022389,0.027759,-0.24179,0.26813,-0.071366,-0.14774,0.18252,-0.052382,-0.0094611,-0.18599,0.16315,0.21521,-0.2919,0.059307,0.071604,0.082104,-0.19073,0.033211,0.2433,-0.047875,0.080495,-0.24044,0.07336,-0.21736,-0.06726,0.28244,-0.35054,0.45324,-0.36891,0.064489,0.54376,-0.50661,-0.035185,0.22451,0.11079,-0.29687,0.057548,0.25145,-0.25945,0.05028,0.10217,0.15406
3.9026,-0.42031,-4.7432,4.016,-3.6399,0.042368,4.5056,-2.2068,-0.98265,1.0522,0.75804,-2.2349,1.5211,-0.82343,0.60307,0.98782,-2.0458,1.3031,0.076983,-0.83959,0.86307,-0.34432,-0.15906,0.088823,-0.10012,0.2433,0.27268,-0.609,0.21488,0.018626,0.26797,0.083887,0.077932,-0.22143,0.12326,0.21514,-0.10335,-0.084154,0.37307,-0.66513,-0.35273,1.4848,-2.3012,2.1586,-0.83316,-1.0192,1.4935,-1.2108,1.0204,-0.40449,-0.30339,0.38388,-0.71296,1.4785,-1.1394,0.045868,0.43874,-0.51931,0.48258,-0.021636,-0.29252,-0.016153,0.24376,-0.20553,0.06658,0.21662,-0.44887,0.25847,-0.071256,0.3394,-0.52193,0.5678,-0.12522,0.029766,0.30964,-1.2386,0.66233,0.28059,-0.43363,0.013637,-0.17927,0.74569,-0.63193,0.61638,-0.68589,0.52534,-0.31344,0.24806,-0.14234,-0.053007,0.48795,-0.96319,0.90834,-0.26705,-0.22016,-0.17328
3.0672,-0.23266,-3.5325,1.644,-1.8448,-0.18734,4.6279,-2.3929,-1.2062,1.7982,-0.86273,-1.0608,0.65825,0.61952,-0.49227,0.30622,-0.051077,0.17587,-0.26394,0.14995,0.034956,-0.072388,-0.051515,-0.25972,0.68899,-0.411,-0.27239,0.30772,0.0061892,0.26831,-0.17299,0.01555,-0.10262,0.578,-0.31267,0.0060287,0.37551,-0.62883,0.67233,-0.71242,0.19355,0.84875,-1.6145,0.75073,0.06933,-0.44667,0.55752,-0.53613,0.29783,-0.10508,-0.21416,0.57964,-0.14634,-0.32938,-0.25547,0.86727,-0.1993,-1.0617,1.3925,-0.26953,-0.56183,-0.079854,0.074788,0.65468,-0.62633,0.25204,-0.11967,0.088033,0.30694,-0.8604,1.1741,-0.82834,0.66532,-0.27231,-0.33756,-0.13217,-0.53673,1.3997,-0.5448,-0.25634,0.018276,0.22389,0.35093,-1.0787,1.3229,-0.74012,-0.16577,0.4208,-0.44429,1.2057,-1.4336,0.088927,1.1783,-1.0254,0.34646,1.7184
-1.5001,-0.67111,0.15792,0.49792,0.010832,-0.84275,-0.5202,0.35951,0.30435,0.13481,0.19804,-0.0018027,-0.094259,0.095528,0.031598,-0.12085,0.074485,0.12307,-0.12385,0.019191,0.1131,-0.16724,0.070929,0.04621,-0.18706,0.18974,-0.091395,-0.061478,0.36828,-0.33373,-0.1502,0.46902,-0.11949,-0.17755,0.26831,-0.0025072,-0.10249,0.16169,-0.11633,0.018487,0.19226,-0.38581,0.099736,0.20356,-0.51264,0.17926,0.31697,-0.30472,0.14095,0.085026,-0.51297,0.21232,0.45542,-0.51573,0.090801,0.37425,-0.47001,0.17924,0.21226,-0.34116,0.23911,0.00806,-0.39292,0.46722,0.2253,-0.72365,0.33901,0.40529,-0.76888,0.18582,0.21627,-0.31594,0.50899,-0.023008,-0.3424,0.015484,-0.094526,0.21815,-0.2864,0.12715,0.5409,-0.72718,0.23849,0.44674,-0.85688,0.63802,0.40236,-0.88875,0.88139,0.86281,-1.2616,-0.75564,0.5314,-0.42431,-0.37905,-0.33378
0.77947,0.3005,-0.17847,-0.86985,-0.090075,0.2827,-0.47084,-0.40354,0.22442,0.27715,0.4179,0.271,-0.44713,-0.24838,0.35288,0.046659,-0.030844,0.22323,-0.24724,-0.37315,0.20345,0.23287,0.013492,0.038291,-0.23001,-0.21302,0.30661,0.14051,-0.29866,-0.0099759,0.21703,-0.063102,-0.091823,0.09986,0.067303,-0.010548,-0.020686,0.026104,0.11451,0.057555,-0.090449,-0.081145,0.0011317,0.11814,0.2502,0.079336,-0.32495,-0.32578,0.21716,0.39436,-0.18874,-0.34541,0.21566,0.10927,-0.30281,0.15254,0.2107,-0.49165,-0.1065,0.66514,0.0064931,-0.65702,0.070214,0.58255,-0.11669,-0.48948,0.16174,0.32324,-0.23119,-0.10474,0.26042,-0.0068893,-0.12215,-0.040942,-0.079431,0.20366,0.069876,-0.41254,0.22865,0.55311,-0.48298,-0.32205,0.53699,-0.21128,-0.47336,0.48261,0.10862,-0.49131,0.2768,0.36435,-0.36728,-0.11479,0.32568,-0.15974,-0.29473,-0.42972
0.69214,0.27447,-0.1432,0.01369,0.35074,-0.20451,-0.42694,-0.044947,0.24075,0.39603,-0.13144,-0.56248,0.33463,0.51127,-0.73078,-0.30894,0.85841,0.12571,-0.86368,0.0084794,0.85736,-0.60909,-0.11129,1.0277,-0.99056,-0.21064,1.2567,-0.50476,-0.44207,0.44157,0.22023,-0.12158,-0.20491,0.27615,0.11845,-0.76215,0.12123,0.78845,-0.7304,-0.34936,0.77738,-0.25435,-0.20052,0.19759,-0.32205,0.17506,0.36956,-0.5704,0.00085633,0.54755,-0.2436,-0.18217,0.054851,0.11742,0.079187,-0.22086,0.19505,0.0073245,-0.17719,0.23673,-0.016704,-0.10404,5.3022e-05,0.030698,0.062095,-0.21173,-0.009868,-0.048179,-0.14424,0.2022,-0.10424,0.19929,0.15855,-0.26873,0.10335,-0.51972,0.31017,0.71236,-0.73825,0.27666,0.15695,-0.75048,0.62662,0.22647,-0.58592,0.59684,0.1583,-0.30863,0.91866,-0.66851,-1.6051,0.52392,0.073944,-0.38186,0.79896,1.9798
0.66033,-0.44617,-1.5527,0.94249,-2.8709,2.5464,2.2548,-3.9825,1.9859,0.39568,-2.1438,1.5455,-0.081951,-0.061812,0.078011,-0.068253,0.056097,0.045598,-0.0044532,-0.16973,0.20324,-0.022846,-0.22642,0.14951,0.097506,-0.087418,-0.15565,0.29065,-0.021728,-0.30496,0.34165,0.27532,-0.36458,0.23013,0.23402,-0.16328,0.12479,-0.13914,0.03986,0.00048951,-0.35222,0.21555,-0.042669,-0.29426,0.091233,0.066407,0.17675,-0.59008,0.441,0.28939,-0.55865,0.37665,-0.15199,0.0073672,0.0036354,0.093318,-0.1704,-0.0097474,0.016621,0.2264,-0.15829,-0.23882,0.36379,-0.0079337,-0.15368,-0.055683,0.039433,0.15979,-0.20623,0.1759,0.11051,-0.32317,0.0055052,0.60719,-0.43734,0.16907,-0.15664,-0.34019,0.46607,-0.48717,0.27562,0.19106,-0.32348,-0.17854,0.66704,0.023265,-0.90445,0.73758,-0.12816,0.14255,-0.46613,0.4645,0.0084043,-0.5659,0.34699,1.2599
-1.3742,0.34219,2.0586,-4.7619,0.19961,-0.016973,0.97568,2.5093,-1.9022,0.61527,-1.5037,1.3643,0.63823,-2.1809,1.9723,-1.2388,-0.25177,1.3564,-0.84097,0.075107,0.19338,-0.31514,0.339,-0.13349,-0.17136,0.27053,-0.012979,-0.11528,-0.36129,1.1775,-1.6525,1.8524,-1.2368,0.42908,0.48622,-0.91608,1.4583,-1.6095,1.1703,-0.27558,-0.72121,0.96083,-0.30373,-0.37547,0.52099,-1.2621,1.4035,-0.69997,-0.51027,1.2603,-1.423,1.1496,-0.28556,-0.96478,1.363,-0.28281,-0.36221,-0.64356,2.9245,-4.394,2.1277,1.7175,-3.45,3.1793,-1.8069,-0.03248,1.3475,-1.5347,0.8012,0.28175,-0.5967,0.063303,0.76201,0.070852,-2.0105,2.2491,-1.1284,-0.93695,1.8011,-1.2802,1.0895,-1.1077,0.82578,-0.67313,1.2125,-0.72558,-0.28483,0.020418,0.74246,-0.50939,-0.27288,0.51108,-0.36351,0.5544,-0.46651,-1.4874
-2.0624,-1.6591,-1.2558,-0.74068,5.0981,-4.4775,2.456,-1.061,-2.1648,2.9905,-1.173,0.56778,-0.040163,0.019283,-0.21761,0.15118,0.30832,-0.56593,0.6474,-0.51757,0.21656,0.27282,-0.32604,0.27308,-0.27519,0.59835,-0.37373,0.19037,0.36314,-0.38001,0.057235,0.020327,-0.29855,0.19604,-0.24196,-0.16814,-0.073185,0.17536,-0.20707,-0.060878,0.27955,-0.19549,0.31173,-0.50561,0.62661,-0.63768,0.45492,-0.050038,-0.26056,0.49485,-0.5297,0.35532,-0.12258,0.1484,-0.39747,0.33532,0.13784,-0.42249,0.25873,0.053263,-0.0063019,-0.24818,0.1625,0.33235,-0.79604,0.86018,-0.35815,-0.33356,0.54383,-0.20282,-0.046129,-0.039237,0.2297,-0.32158,0.22962,-0.046264,-0.11002,0.40741,-0.20601,0.0006478,-0.5507,0.81261,-0.91351,0.37154,0.31896,-0.45436,0.64845,-0.65402,0.49621,-0.425,0.67014,-0.71972,0.43609,-0.16498,0.060897,0.28678
2.9676,0.57388,-1.8198,-1.3273,-1.5152,3.6823,0.80464,-2.7013,1.764,-1.1898,-0.70642,1.0117,0.094196,-0.19747,0.33346,-0.20669,-0.024397,0.36075,-0.47904,0.26636,-0.061742,-0.15042,0.35069,-0.46066,0.25966,0.14628,-0.31244,0.08877,0.10748,0.015712,-0.019969,0.21114,0.15666,-0.096666,0.13065,0.11185,-0.047223,0.026219,-0.14175,-0.079565,-0.022457,-0.29805,0.14646,0.061816,-0.40116,0.23206,0.13947,-0.12282,-0.01739,0.064824,0.05005,-0.049504,0.047936,-0.15397,0.097287,0.054686,-0.13011,0.12502,-0.20661,0.3803,-0.47769,0.1652,0.31447,-0.52292,0.40874,-0.15658,-0.079375,0.19871,-0.075545,-0.14961,0.11375,0.13673,-0.25395,0.36514,0.13673,-0.31036,-0.17683,0.00093796,0.14499,-0.22164,0.009855,0.18716,0.10067,-0.22631,0.052895,0.38032,-0.5003,0.20664,0.14203,-0.21093,0.057111,-0.07304,0.34831,-0.28094,-0.1153,0.05034
-1.1986,-0.27294,0.65273,-0.84302,0.53696,0.25259,-0.90303,1.0194,-0.21597,-0.38486,0.51267,-0.67022,0.64801,-0.23469,-0.23482,0.47321,-0.30426,-0.29898,0.34093,-0.059333,0.3843,-0.64154,0.54886,0.027323,-0.58401,1.5772,-1.1954,0.43797,0.35229,-0.8362,0.78208,-0.47462,0.011077,0.22382,-1.1244,1.1506,-0.30676,-0.77632,1.0721,-0.64171,0.12999,0.054087,0.072583,-0.10146,0.13932,-0.57275,1.1005,-0.92067,0.078242,0.5999,-0.94246,0.88384,-0.28258,-0.21121,-0.36956,1.1284,-0.71091,-0.15719,0.86908,-1.5617,1.7068,-0.61171,-1.1746,2.0089,-1.346,0.14424,0.87808,-0.84767,0.38733,0.28153,-1.1566,0.34523,0.97236,-1.2246,0.48958,0.60953,-1.1826,0.9003,0.12006,-1.0241,1.2203,-0.41925,-0.92854,1.7598,-1.4717,0.67585,-0.31961,0.35696,-0.1252,0.29911,2.0049,-3.3435,0.38198,0.050829,-0.58416,-1.2191
-0.78171,-0.74339,-0.70507,-0.60608,-0.19051,2.4109,-0.5694,-1.2396,1.2721,-0.82957,-0.77216,0.15073,0.86437,-0.090199,-0.13023,0.14534,-0.073594,0.10897,-0.27593,0.2706,-0.015045,-0.21478,0.11695,-0.26322,0.37557,-0.11149,-0.20608,0.37726,-0.099627,0.23982,0.0078306,0.0098398,0.1433,0.0864,-0.1268,0.0064567,0.03272,-0.1232,0.04159,-0.19234,-0.0014269,-0.058475,0.11585,-0.25085,0.15108,-0.014434,-0.12934,0.17047,-0.05497,0.033249,0.0048763,-0.12118,0.18515,-0.05021,-0.20555,0.30637,-0.21324,0.041696,0.067151,-0.20863,0.19714,0.08023,-0.35055,0.30506,-0.056575,-0.16095,0.32793,-0.41593,0.32582,-0.044719,-0.11431,0.31583,-0.19216,-0.009292,0.0020229,-0.40369,0.38841,-0.060876,-0.22995,0.26728,-0.068259,0.18215,-0.2747,0.2395,-0.15818,0.088882,0.013068,-0.03481,-0.1484,0.38047,-0.36135,0.12989,0.02168,0.073264,0.16866,0.26407
0.03744,0.02725,0.017061,-0.32168,-0.21233,0.26708,0.1956,-0.40524,-0.5835,0.065909,0.71848,0.35564,-0.52705,-0.41241,0.45816,0.4518,-0.21937,-0.25169,-0.030277,-0.047805,0.14473,0.13642,-0.057566,0.26793,0.083167,-0.81038,-0.29634,0.87573,0.18585,-0.68959,0.25313,0.79067,-0.38985,-0.91152,0.22982,0.74927,-0.21307,-0.55041,0.20661,0.17423,-0.28828,0.21758,0.41081,-0.2994,-0.22199,0.3835,0.12187,-0.23418,0.03528,0.12835,-0.10781,-0.0919,0.12576,0.11428,-0.089142,-0.079512,0.009309,-0.072902,0.021879,0.10865,-0.20159,-0.19417,0.23207,0.088322,-0.23321,0.08513,0.21821,-0.24497,-0.23946,0.31686,0.27274,-0.34302,-0.26741,0.44071,0.2814,-0.38158,-0.16587,0.12654,-0.11747,0.14038,0.31011,-0.41004,-0.20937,0.6272,-0.034204,-0.5141,0.48237,0.49138,-0.18904,0.23656,-0.060771,-1.043,-0.30818,0.14626,-0.46136,-1.069
2.393,0.24821,-1.8966,2.2335,-1.7569,-0.054557,3.1095,-4.1694,1.5265,0.88384,-0.49955,0.33113,-2.0282,3.5573,-2.5466,0.16541,0.58722,-0.70099,1.7399,-2.3463,0.29496,3.0791,-3.0492,-0.92107,2.5285,-0.35908,-0.68387,-0.20123,0.91065,-0.11112,-0.32832,-0.00031323,0.53561,0.32938,-1.1425,0.30893,1.2739,-0.69159,-0.84728,0.50533,0.23922,-0.49823,0.13195,0.21742,-0.28715,-0.57108,0.74474,0.5067,-1.438,0.2922,1.2499,-0.84862,-0.39436,0.48123,0.044897,0.23387,-0.40491,-0.36443,1.0809,-0.61573,-0.53943,0.5704,-0.20878,0.45578,-0.18985,-0.025374,-0.21047,-0.49272,1.1211,-0.42632,0.33474,-1.7826,2.262,-0.37926,-1.5439,1.7594,-1.526,1.7704,-0.9341,-1.4651,2.8499,-2.0299,0.81338,-0.3428,0.41535,0.46596,-1.4932,1.1174,-0.62148,-0.2117,1.4889,-1.9823,0.67134,1.0115,-0.72873,-2.4689
0.63442,-0.45584,-1.5461,0.11079,-1.711,-0.47271,4.38,-1.0425,-2.2138,2.0664,-0.61062,-1.0522,0.046617,1.2009,-1.0907,1.0209,-0.81941,0.70553,-0.12318,-0.39021,0.57299,-0.53363,0.21614,-0.20004,0.18166,0.1812,-0.13008,-0.28321,0.13947,0.30253,0.064154,-0.49159,0.85784,-0.39676,-0.27277,0.60881,-0.052179,0.070384,-0.45064,0.15652,0.073106,0.073218,-0.54417,0.30582,-0.12849,0.11608,-0.31624,0.1955,-0.10041,-0.021002,0.18885,-0.32875,0.60107,-0.5365,0.080801,0.028584,0.10974,0.28101,-0.55605,0.23776,-0.13285,0.28441,0.056933,-0.69636,0.49322,0.012054,0.12813,-0.15778,-0.37912,0.82614,-0.25738,-0.51676,0.61816,-0.010518,-0.31209,-0.20641,0.043703,0.18175,-0.0069644,-0.11216,-0.18293,0.54833,-0.11787,-0.3691,0.67785,-0.69727,0.13922,0.39101,-0.43418,0.54982,-0.67784,0.75637,-0.61298,-0.05792,0.68405,1.426
3.1459,0.86829,-1.4093,-2.4921,-0.48193,1.0305,3.0974,-1.4041,-0.99124,0.87488,-0.67032,-0.42713,-0.4007,2.6481,-2.8323,1.7682,-0.89833,1.0379,-0.65292,-0.36084,0.43547,-0.57719,1.2009,-0.91837,0.36344,-0.48859,0.15956,0.68909,-0.2849,-0.58,0.18188,0.80957,-0.37873,-0.18757,0.26282,0.35936,-0.37927,0.06337,0.023255,-0.22286,0.92269,-1.7968,1.0167,0.053691,-0.48858,0.22957,-0.04467,-0.13927,0.039617,0.22923,-0.22505,-0.34376,0.84271,-0.19308,-1.0945,1.7655,-1.6648,0.55347,1.417,-1.6122,-0.36686,1.2027,-0.12064,-1.0843,1.4004,-0.62435,-0.56397,1.4068,-1.8322,1.5619,-0.57603,-0.5398,1.4381,-1.2702,1.035,-1.1316,0.68602,-0.046767,-1.4089,2.3189,-1.6686,0.73465,-0.36008,0.22156,0.1825,-0.51706,0.72253,-0.15787,-0.72996,0.87629,-0.59525,0.26989,0.2337,-0.61205,0.36712,1.3463
3.5984,-0.45365,-4.5057,2.9175,-2.1234,-0.84082,4.6021,-0.85566,-2.6459,1.5174,0.90162,-2.8401,2.1614,-0.36431,-0.072257,0.070887,-0.45029,1.1033,-1.0474,0.4277,0.35894,-0.73767,0.48373,-0.36167,0.15644,0.217,-0.16916,-0.035161,0.53733,-0.89521,0.71193,-0.14926,0.085272,0.40651,-0.68418,0.52201,-0.074496,0.064838,-0.039222,-0.43922,0.5542,-0.44352,0.21091,-0.29411,-0.29653,1.03,-1.2285,0.29884,0.80427,-1.2252,0.71718,0.18161,-0.38608,0.18307,-0.16182,0.47029,-0.51506,-0.0039447,0.35194,0.16077,-1.1436,1.361,-0.50589,-0.85974,1.7068,-1.423,0.50835,0.26627,-0.63921,0.62781,-0.4288,0.40372,0.15446,-0.33223,-0.42696,1.0108,-1.1225,-0.11338,1.1059,-0.91179,0.66521,-0.64631,0.8451,-0.92871,1.2369,-1.4747,0.60615,0.89515,-1.5037,1.0139,-0.28924,-0.11896,0.25233,-0.17161,0.27666,0.72493
-1.246,-1.0177,-0.78937,-2.3825,2.8552,1.2552,-2.5821,1.4673,-0.20872,-1.3849,0.93064,0.53688,-0.47152,0.107,0.32484,-0.31232,0.13431,-0.11561,0.18921,-0.18361,0.057601,0.0072458,0.058834,0.0013781,-0.36137,0.69802,-0.656,0.10993,0.72007,-0.78752,0.67923,-0.49597,0.56618,0.056396,-0.33913,0.28784,-0.11105,0.15755,-0.57378,0.43554,-0.30214,0.001388,-0.15096,0.30931,-0.40591,-0.018053,0.41458,-0.3456,0.21986,-0.18442,0.079296,0.25739,-0.46419,0.34904,-0.13106,-0.056286,0.12379,-0.19654,0.30663,-0.39617,0.29358,0.09776,-0.32778,0.16826,-0.10513,0.26702,-0.16681,-0.16207,0.16223,0.14935,-0.26896,0.076754,0.28554,0.066321,-0.2755,-0.088729,-0.082363,-0.046456,0.043442,0.16118,0.031002,-0.3071,0.32765,-0.12481,0.27125,-0.71341,0.78111,-0.1205,-0.35649,0.267,-0.12,0.34301,-0.73285,0.67643,0.17884,-0.31875
2.1736,1.2865,0.3993,-4.8217,2.485,-1.7982,1.0327,2.9357,-2.2766,-0.030451,0.14981,0.68424,-2.0544,1.7566,-0.47511,0.073018,0.032813,0.2607,-0.21121,-0.075217,0.12003,-0.017343,-0.083489,-0.076512,0.26263,-0.12248,0.18846,-0.75928,0.9655,-0.28408,-0.30146,0.39841,0.031708,0.34158,-0.69954,0.82019,-0.004316,-0.73444,0.7974,-0.69418,0.46921,-0.36705,-0.28737,0.43234,-0.18283,-0.22872,0.17802,-0.11672,-0.062244,0.20694,-0.15601,0.1583,0.0419,-0.33793,0.30246,-0.055642,0.015876,0.05539,-0.36403,0.59797,-0.42911,0.018241,0.23848,-0.39666,0.47884,-0.18719,-0.12687,-0.15161,0.41606,0.098525,-0.9832,1.5074,-0.51929,-0.63221,0.7877,-0.86092,0.35428,0.044968,-0.24587,0.4698,-0.33226,0.058059,-0.13397,0.52782,-0.11838,-0.47664,0.36293,-0.17632,0.10965,0.32717,-0.93023,0.81412,0.19514,-0.74709,0.25038,1.2478
0.86713,0.89765,0.92817,-4.6218,0.92143,-0.12802,0.15969,2.9298,-1.1996,-0.99854,0.061203,0.82352,-0.78326,-0.20137,0.60285,-0.2576,0.26442,-0.19422,0.43807,-0.47169,-0.30871,1.2421,-0.96096,-0.39275,0.98977,-0.54633,-0.098446,0.39221,-0.30585,0.14856,-0.099844,0.43758,-0.36657,0.53433,-0.52165,0.33571,0.29094,-0.66016,1.1344,-1.282,0.17831,0.63868,-0.11253,-1.0449,1.2947,-0.83019,0.20636,0.062553,-0.56692,0.6209,-0.25582,-0.031849,-0.11833,0.51854,-0.59876,0.3179,-0.14569,0.41802,-0.60757,0.60363,-0.35967,-0.49107,1.5525,-1.7608,0.39433,1.3786,-1.9786,0.95273,0.34945,-0.60321,0.34326,-0.085635,0.14175,0.37518,-0.38947,-0.39857,0.049087,0.12534,0.020358,0.15617,-0.31719,-0.020524,0.59858,-0.64176,0.22542,0.6568,-1.4787,1.8324,-1.7321,1.2758,0.3519,-2.4804,2.7373,-1.4576,0.16586,1.7893
-1.5632,-0.075988,1.4113,-2.5441,-0.64851,2.3426,-0.61647,0.30786,-0.10737,0.03058,0.32603,-0.32891,-0.0061286,0.18742,0.054006,-0.25215,0.21028,-0.21582,0.36294,-0.47607,0.34582,0.18767,-0.35842,0.44654,-0.38607,0.41701,-0.05105,-0.04691,0.25508,-0.066067,-0.09999,-0.2415,0.01064,-0.0053554,-0.13079,0.20713,-0.14468,-0.08468,-0.00084386,-0.086476,0.072385,0.0025939,0.066645,-0.085179,0.17244,-0.20205,-0.029086,0.36507,-0.30848,-0.040106,0.25846,-0.068586,-0.10542,0.26688,-0.12246,-0.10783,0.097804,-0.39893,0.46272,-0.14602,0.055375,-0.15386,-0.18131,0.27904,-0.4007,0.36744,-0.16036,0.2731,-0.055544,-0.13396,0.075981,-0.05974,0.32126,-0.4323,0.23468,-0.07096,0.20116,-0.3513,0.20292,0.032657,-0.084685,0.075284,-0.1809,0.27385,-0.010258,-0.098851,-0.11908,0.12515,0.13411,-0.076546,-0.23215,0.78872,-0.60473,-0.19992,0.55015,1.3002
-0.64076,-0.39759,-0.15443,0.36458,-2.0472,0.78675,1.257,-0.66719,0.81488,-0.73769,-0.082247,0.45638,-0.51833,0.66084,-0.32868,-0.32491,0.81871,-0.7075,0.037602,0.70382,-0.93293,0.91565,-0.50274,-0.49728,1.215,-0.90902,0.89627,-0.28393,-0.58491,0.59652,0.27312,-0.5134,0.11737,0.077183,-0.48182,0.65323,-0.41482,-0.28788,0.64632,-0.97148,0.53748,0.23679,-0.3583,0.61423,-1.9503,3.0298,-1.9279,-0.53637,1.4392,-0.66238,0.57499,-0.99326,1.0139,-1.0678,1.1142,-0.89695,0.29518,0.36249,-0.70491,1.3022,-1.6377,0.53733,0.4163,-0.40557,0.99413,-0.8646,0.6872,-1.5119,0.48955,1.0642,-1.256,0.3798,1.2571,-2.1936,1.1247,0.32993,-0.30761,0.33659,-1.0184,1.0535,-0.47458,0.35263,-0.4443,-0.00072301,0.32293,0.36564,-1.2116,1.8742,-0.39921,0.48183,-0.57015,-1.637,-1.3338,0.45776,2.7649,5.0719
1.3131,-0.92695,-3.167,1.2999,-0.99367,1.9867,1.1082,-2.219,0.73468,0.018259,-0.52597,-0.61069,1.2307,-0.2231,0.093012,-0.028763,-0.20187,0.37592,-0.22983,-0.0565,0.11328,0.085763,-0.08905,-0.20742,0.1887,0.10735,-0.16329,-0.22905,0.5711,-0.40687,0.23948,-0.032866,0.036405,0.32808,-0.29303,0.36796,-0.019485,-0.23347,0.20348,0.00056531,-0.17788,-0.35551,0.42508,-0.13073,-0.36772,0.31331,-0.20186,0.097521,-0.081864,-0.047178,0.31181,-0.23609,-0.071438,0.14102,0.11282,-0.36806,0.36591,-0.12157,-0.04421,-0.048405,0.11701,-0.025764,-0.0303,-0.026815,-0.040701,0.29072,-0.44735,0.21992,0.25314,-0.45603,0.19466,0.10574,-0.032349,0.051864,0.14328,-0.11534,-0.085251,-0.22973,-0.077318,0.404,-0.36919,0.044697,0.29057,-0.18487,0.010181,0.27971,-0.37965,0.19215,0.021927,-0.20183,0.45076,-0.45324,0.095884,0.15589,-0.035368,-0.22663
-1.6164,-0.79521,0.026024,-0.1971,0.1094,-0.002612,0.60876,0.19109,-0.41748,-0.27028,0.56465,0.18406,-0.37916,-0.1095,-0.16822,-0.15331,0.45014,0.25176,-0.38169,-0.055034,0.33591,-0.08183,-0.2522,0.19252,0.11538,-0.25707,0.017395,0.06145,-0.14855,0.24853,0.11715,-0.39205,0.061747,0.23535,-0.16616,0.070575,0.12277,-0.14521,0.11734,0.10033,-0.18303,0.089495,0.18719,-0.090163,-0.062847,0.026906,0.078076,0.076915,-0.16006,-0.065965,0.18076,-0.1113,-0.15237,0.20798,-0.035981,-0.24971,0.15851,0.14394,-0.2535,-0.098978,0.23087,0.079172,-0.1955,-0.08266,0.17121,0.040062,-0.17174,0.04104,0.094798,-0.13145,0.12423,0.19685,-0.30645,-0.10608,0.30756,0.0044818,-0.0080897,0.064194,-0.2516,0.034756,0.31196,-0.15097,-0.17177,0.15133,-0.091467,-0.17489,0.17741,0.091041,-0.35942,0.049124,0.44869,0.0026912,-1.0385,-0.019114,0.61116,1.2414
2.1209,0.99209,-0.1367,-3.5977,-0.25841,0.9817,2.724,-0.71072,-1.2801,0.88106,-0.6344,-0.11923,-0.76058,1.9967,-1.4517,0.68167,-0.23305,0.016481,0.80951,-1.4078,0.71681,0.1412,-0.44171,0.47733,-0.40209,0.50986,-0.54386,-0.034515,0.87081,-0.84171,-0.21413,1.9251,-2.445,1.7407,-0.57655,0.13003,1.1697,-2.7553,2.5204,-0.88809,-0.099503,-0.13865,-0.004417,0.23767,-0.66278,0.5708,-0.57185,0.58811,-0.29414,-0.26413,0.53055,-0.34981,0.53837,-1.0267,0.91445,-0.26829,0.078616,-0.35817,0.22979,0.58265,-0.99847,0.36712,0.28528,-0.41414,0.096897,0.26125,-0.058566,-0.46133,0.64166,-0.40258,0.39558,-0.49127,0.72221,-0.024998,-1.1297,0.85444,-0.33479,-0.0066756,0.36045,-0.78902,0.73136,-0.16797,-0.16878,0.96013,-1.4944,0.58575,0.49934,-0.18644,-0.98381,1.741,-1.221,-0.16648,1.1771,-1.2124,0.74284,2.6981
0.30351,0.13057,-0.042361,-0.63692,0.050833,-0.47954,-0.31731,0.18534,-0.17395,0.82486,0.36607,-1.2729,0.67558,0.9693,-1.1196,-0.095238,0.38572,-0.42161,0.38052,0.21986,-0.38573,0.14441,0.22241,-0.12545,-0.46585,0.063943,0.83778,-0.40666,-0.80271,0.7797,0.27812,-0.67355,0.10732,0.17682,0.054587,0.25571,-0.18658,-0.076341,0.1959,-0.082196,0.074766,0.21559,0.00251,-0.26231,-0.25212,0.50304,0.22421,-0.81391,0.15403,0.62877,-0.59405,-0.21441,0.39299,-0.16319,0.0069517,0.15348,-0.16878,-0.074821,0.0077914,0.085046,0.089528,-0.075128,0.02764,-0.036584,-0.083688,0.16091,-0.071399,-0.074534,0.30287,-0.10782,-0.2001,0.30566,0.02728,-0.25682,-0.0037474,-0.099953,-0.19475,0.29402,0.13808,-0.37313,0.31377,0.19012,-0.5998,0.25258,0.19399,-0.40083,0.42586,-0.05002,-0.45665,0.5296,0.036087,-0.45951,0.3147,0.036653,-0.22499,-0.48664
-0.01532,0.11648,0.24828,-0.20838,-0.47292,-0.38242,-0.040312,-0.13254,0.15846,0.55656,0.25001,-0.40471,-0.2176,0.26292,0.10256,0.034219,-0.034316,-0.42458,0.039773,0.44894,-0.18376,-0.072085,0.29612,-0.29963,-0.19609,0.40212,0.070772,-0.18988,-0.0040473,-0.10456,-0.13586,0.18922,0.22074,-0.14596,-0.20863,0.093269,0.12427,-0.035753,0.048662,0.043786,-0.15667,0.053079,0.34759,0.010532,-0.2189,0.023363,-0.0048348,-0.040025,0.19589,0.1077,-0.12263,-0.10657,-0.022816,0.069644,0.01521,-0.11309,0.010025,0.050983,-0.12646,-0.073282,0.060907,0.030692,0.032236,-0.070155,-0.099769,0.13306,0.022311,-0.10583,0.08641,-0.099627,-0.029,0.30113,-0.2557,-0.25679,0.55562,0.04493,-0.4862,0.14478,0.1359,-0.1363,0.075908,-0.016498,0.1102,0.097136,-0.4184,0.16088,0.47896,-0.38224,-0.20114,-0.15154,-0.45947,0.47911,-0.21363,-0.70345,1.2688,3.241
3.1013,-0.57682,-4.255,3.3437,-2.3552,-0.5022,4.5578,-2.2037,-1.3167,1.6635,-0.13614,-1.8522,1.2513,0.40322,-0.60068,0.50103,-0.10074,-0.29251,0.045083,0.39721,-0.0002431,-0.60921,0.27253,0.26485,-0.12545,-0.20327,-0.0022448,0.43381,-0.43134,0.16026,0.10948,0.70038,-1.1713,0.53053,0.91145,-1.375,1.1401,-0.73803,0.12662,0.73295,-1.5756,1.5306,-1.4937,1.3057,-0.95374,-0.27076,1.8313,-2.7152,2.1464,-0.66641,-0.99956,2.073,-1.9987,1.4661,-0.88861,0.44842,-0.30442,0.18936,0.035187,-0.15929,0.64731,-1.4618,1.1026,0.42153,-1.5364,1.5736,-1.065,0.30505,0.92992,-2.1643,2.277,-1.1076,-0.12261,1.5424,-2.3313,1.7257,-0.29777,-1.5709,1.7333,-0.72086,-0.049803,0.22907,0.15092,-0.17418,-0.061884,0.69951,-1.0301,0.11825,0.79273,-0.40865,-0.30756,0.39571,0.024458,-0.23579,-0.0054021,0.22499
0.059171,-0.042937,-0.14505,0.058054,-0.0097354,-0.38963,-0.4485,-0.035301,0.084675,-0.12281,0.12189,0.46179,0.12924,-0.22539,0.021994,0.23735,0.024048,-0.22329,-0.23954,-0.10669,0.1084,0.27267,0.11811,-0.16853,-0.13693,0.11796,0.088196,-0.1072,-0.069243,0.050639,0.041162,-0.011136,-0.081037,-0.06918,0.071094,0.055876,0.041545,0.19313,-0.032918,-0.32131,0.11979,0.33832,-0.1981,-0.10252,0.40418,-0.034194,-0.39814,0.16094,0.29255,-0.19079,-0.21022,0.068757,0.16693,0.07946,-0.18774,-0.20481,0.17212,0.17909,-0.16421,-0.10116,0.081764,-0.031244,0.0044499,0.081388,-0.12383,-0.1154,0.13807,0.053962,-0.10618,0.073771,0.11942,-0.16113,-0.16524,0.15816,0.11562,-0.24778,-0.1501,0.34469,0.332,-0.24127,-0.30542,0.19459,0.081794,-0.35464,0.041503,0.36832,-0.19237,-0.23628,0.37485,0.099392,-0.46751,0.037431,0.55928,-0.17688,-0.50305,-0.82922
3.2672,0.28712,-2.693,1.1884,-1.873,2.701,-0.87723,-0.93442,1.9498,-0.80842,-0.70908,0.75681,-0.2143,0.27658,-0.10061,-0.26155,-0.00012714,0.36441,-0.40303,0.32679,-0.66803,0.49097,0.12402,0.53138,-1.5818,2.5923,-1.7233,-0.028351,1.8489,-2.6198,1.9543,-0.7665,-0.36834,0.074814,0.81743,-0.97182,-0.25408,1.3689,-1.5344,0.91167,-0.20538,0.1633,-0.38659,0.29873,0.091498,-0.36274,0.25537,0.31477,-0.9342,0.76138,-0.16333,-0.17221,0.05547,0.024804,-0.25505,0.10192,1.1138,-2.1251,1.7553,-0.79004,0.45241,-0.92608,1.4598,-1.3311,0.86459,-0.62771,0.45525,-0.099584,-0.074359,-0.099462,0.38741,-0.45048,0.30521,-0.12833,0.16087,-0.72295,1.3679,-0.93506,0.12897,0.24076,-0.87569,1.3493,-1.5446,1.1389,-0.21478,-0.38527,0.45282,-0.49649,1.2291,-1.6929,1.5187,-2.0223,2.2248,-0.85046,-0.22563,0.3992
2.5427,1.4502,0.35764,-4.5784,2.7452,-2.2061,1.6802,2.3153,-2.7058,0.94441,-0.54573,0.53627,-1.8121,1.0914,0.94091,-0.85354,0.36656,-0.11188,0.1793,0.042704,-0.51028,0.52727,-0.32067,0.25842,-0.04301,-0.44979,0.84298,-0.70795,0.3826,-0.22028,0.14686,0.39654,-0.75602,0.6393,0.3186,-0.49824,0.26978,-0.00058375,0.0067733,-0.018524,-0.17824,-0.027082,0.05308,-0.028008,-0.14344,-0.31513,0.57318,-0.34662,0.033498,-0.46034,0.75769,0.073658,-1.2154,1.7325,-1.4572,0.56556,0.51276,-0.75124,0.20399,-0.015604,-0.0047345,0.24945,-0.28575,0.076547,-0.032916,-0.032314,0.11425,0.044381,0.053414,-0.67827,1.2297,-1.1603,1.2484,-0.71009,-0.49638,1.7961,-2.0632,-0.15485,0.96858,-0.16255,0.24699,-0.48247,0.40875,0.040583,-0.51986,0.69405,-0.022548,-1.0108,1.0206,-0.08881,-0.41535,0.46622,-0.42172,0.045702,0.16904,0.29237
-1.4006,-1.44,-1.4794,-1.9527,4.6711,-0.95124,-1.1042,1.0039,-1.4183,-0.20693,0.43277,0.98105,-0.77165,0.48977,-0.27257,0.14348,-0.081146,0.27301,-0.30724,0.064054,0.10664,-0.12428,-0.067847,0.20137,-0.098951,-0.010749,0.15133,0.12527,0.019247,-0.01338,0.23868,0.22548,-0.32446,-0.0068218,0.26674,-0.63017,0.53886,-0.56182,0.184,-0.31951,0.30973,-0.087158,-0.1977,0.19237,0.20746,-0.4156,0.2829,-0.11917,0.047739,-0.24562,0.51905,-0.30467,-0.30581,0.4924,-0.12699,-0.14881,0.035448,0.27118,-0.31306,0.05572,0.22453,-0.16945,-0.16474,0.30731,-0.037554,-0.010139,-0.45599,0.92806,-0.81953,0.097027,0.57435,-0.61445,0.23761,-0.13674,0.63259,-0.8444,0.71905,-0.17178,-0.67696,0.54294,0.15061,-0.92559,0.75476,0.10711,-0.40756,0.48292,-0.41673,0.31743,-0.41559,0.61285,-0.38214,0.0053753,0.031159,0.090464,0.085402,0.080341
-3.5115,-1.6714,0.16864,1.3534,-1.0512,-1.0279,1.0917,0.8491,-0.34861,0.017849,-0.087912,-0.41697,0.50572,-0.028324,-0.94822,0.38403,0.60437,-0.35232,0.10514,0.10767,-0.30341,0.11206,0.27213,-0.023535,-0.21621,-0.10079,0.16512,0.1457,-0.10988,-0.13076,0.10795,0.0086735,-0.11945,0.14442,0.049373,-0.16976,0.051652,0.042068,-0.014419,0.084387,-0.058981,-0.0012725,-0.012723,-0.091496,0.20151,-0.12054,-0.12235,0.59385,-0.092098,-0.44198,0.44851,-0.0021573,-0.37121,0.28255,0.072132,-0.23868,-0.16934,-0.16009,0.16861,0.18248,-0.06884,-0.0089603,-0.088787,-0.068032,0.14379,0.0072469,-0.099895,0.022287,0.01521,-0.0086069,-0.022686,0.068512,0.13289,-0.20997,-0.10107,0.32734,-0.014002,-0.18859,0.062524,-0.085873,0.086698,0.11057,-0.20776,0.11357,0.0067329,-0.079046,0.41097,0.10186,0.27179,0.39764,-1.1033,-0.90713,0.94469,-0.22016,-1.0832,-1.9463
0.79726,-0.94323,-2.6837,-0.4969,1.6792,1.9035,-1.3896,-0.4148,0.53418,-0.70518,-0.095333,-0.022485,0.95358,-0.68823,0.65909,-0.24847,-0.043566,-0.2644,0.051892,0.019191,0.032877,-0.061025,0.21873,0.014561,-0.50292,0.61296,-0.48663,0.38887,0.16569,-0.49507,0.46728,-0.1416,0.10254,0.25285,-0.1365,0.029039,0.24288,-0.0093039,-0.42572,0.33205,-0.18217,-0.16899,0.20681,-0.51937,0.35402,-0.2546,0.020017,0.35343,-0.35653,0.13035,0.033063,-0.056595,0.095139,0.014115,-0.065208,0.015898,-0.19821,0.069542,0.19076,-0.2278,0.018599,0.19464,-0.15682,-0.03179,0.13022,-0.0584,0.032506,0.025578,-0.098684,0.15704,-0.10442,-0.13046,0.26488,0.16316,-0.26024,0.28449,-0.28041,-0.32776,0.407,-0.3441,0.12708,0.11743,-0.25212,0.35682,-0.057925,-0.13497,0.037335,0.19703,-0.37438,0.1844,0.22346,-0.11693,0.030466,-0.21875,0.17607,0.5709
-2.9442,-1.9808,-1.0173,1.8779,-5.824,7.5888,-3.5624,0.02554,2.2614,-3.1173,0.42736,1.6919,-0.77895,0.3025,-0.5504,0.91129,-0.51202,-0.18068,0.45708,-0.63441,0.69339,-0.54748,0.17251,0.54416,-0.74413,0.88081,-0.48673,0.16893,0.60086,-0.76918,0.3808,-0.20514,0.34303,-0.74495,0.26927,0.26875,-0.52548,-0.044739,0.35569,-0.2697,0.099306,-0.0057976,0.042741,-0.018242,0.16066,-0.48018,0.62655,-0.60547,0.38779,-0.022091,-0.25375,0.11753,0.45446,-0.82642,0.57374,0.1231,-0.70168,0.66989,-0.36668,0.33283,-0.47124,0.59627,-0.60442,0.72771,-0.91858,0.88655,-0.53999,-0.041011,0.74798,-1.3009,1.405,-1.1715,1.2639,-1.2704,0.46333,0.19588,0.36628,-0.58607,0.31491,-0.25308,-0.070855,-0.3232,0.27281,0.25493,-0.60553,0.62307,-0.046272,-0.12729,-0.11672,0.46006,-0.30942,-0.44374,0.61872,0.28982,-0.54027,-1.3704
-4.4173,-1.7095,0.99832,-2.3588,1.7014,2.3875,-2.5794,0.73784,0.42983,-1.3712,0.30303,0.56915,-0.21075,0.0089596,0.21824,0.051579,-0.48951,0.42404,0.090457,-0.15401,-0.33878,0.58099,-0.14767,-0.48486,0.60707,-0.34517,0.28745,-0.44809,0.49974,-0.12114,0.10619,-0.11893,0.30424,0.12023,-0.26433,0.39176,-0.14483,-0.051824,-0.12505,0.022581,0.081836,-0.54689,0.33278,0.12131,-0.50285,0.24749,-0.069805,0.16664,-0.0061775,-0.13024,0.095226,-0.12216,0.26096,-0.21046,0.036561,0.27798,-0.1836,-0.59657,1.0729,-0.79169,0.23759,0.13757,-0.47377,0.56825,-0.44581,0.19345,0.21902,-0.16524,-0.45435,0.61626,-0.35664,0.28956,-0.072806,-0.0093353,0.32388,-0.92445,0.76358,-0.46056,-0.19709,0.98259,-1.0111,0.82641,-0.52506,0.13777,0.47994,-0.69071,-0.16358,0.98961,-0.59492,-0.44454,0.83475,-0.31327,-0.30951,0.6596,-0.17252,-1.0046
-0.88783,-0.38957,0.10869,-0.83067,-0.22208,-0.058018,0.53515,0.73997,-0.33756,-0.35546,0.43293,-0.098372,-0.71501,-0.082236,0.33761,0.34444,0.073121,-0.40521,-0.03621,0.79405,-0.39051,-0.65568,0.71053,-0.17826,-0.2786,0.58531,-0.46574,-0.059309,0.54483,-0.68411,0.1109,0.69422,-0.48287,0.085746,0.28136,-0.21006,0.3471,-0.35563,0.013669,0.97741,-0.89207,-0.29997,0.86152,-0.98172,0.55974,0.05071,-0.63996,0.45611,-0.40646,0.43125,0.33721,-0.6446,-0.11063,0.12227,0.50954,-0.37995,-0.24061,0.46203,-0.36705,-0.10624,0.52588,-0.24497,-0.31019,0.67381,-0.27899,-0.75778,0.94019,-0.11089,-0.46891,0.62221,-0.6717,0.59909,-0.0066655,-0.86581,0.82522,-0.10994,-0.33448,-0.073943,0.10938,0.25992,-0.12068,0.35723,-0.83437,0.5877,0.40108,-1.2523,1.1942,-0.45795,-0.40258,1.0104,-0.64218,0.054371,0.051233,-0.014365,0.03723,0.088825
-5.363,-1.8074,1.7482,-2.5488,2.0246,1.4026,-2.0194,0.7356,-0.32767,-0.67401,0.17478,0.9504,-0.46729,0.34358,-0.32491,0.18918,0.099365,-0.071503,-0.12286,0.016163,0.17355,-0.12181,-0.17265,0.22079,0.042504,-0.32719,0.38015,-0.098483,-0.11418,0.28873,-0.17925,0.30732,-0.047245,-0.01152,0.3263,-0.20466,-0.037977,0.045522,-0.028504,-0.10395,-0.096566,0.010995,-0.08954,-0.10716,0.16499,-0.22071,0.13069,0.071383,-0.16782,0.23064,-0.23598,0.076006,0.20736,-0.31806,0.16403,-0.011765,-0.044502,0.10503,-0.28461,0.38431,-0.18928,-0.08104,0.070253,0.011927,0.057153,-0.19863,0.28614,-0.21433,0.1856,-0.24897,0.10479,0.35764,-0.13694,-0.17136,0.099733,-0.28704,-0.034614,0.22316,-0.095728,-0.021188,0.070191,0.11738,-0.18865,0.1703,-0.027236,-0.00017686,0.064669,-0.26523,0.36931,-0.18149,-0.19221,0.34733,-0.31359,0.54598,-0.1367,-0.81938
0.42294,0.68543,0.94792,-0.11161,-0.69672,-0.20747,0.35186,0.12352,-0.19582,-0.065178,0.10126,-0.0040745,-0.032157,0.088998,0.032149,-0.11401,-0.089495,0.08093,0.080529,-0.010075,-0.067375,-0.034946,-0.019065,0.0013767,0.031466,0.071249,0.017462,-0.12908,-0.1067,0.10999,0.21318,-0.016994,-0.16833,-0.019069,0.15519,0.057106,-0.034442,0.06038,0.083217,-0.072245,-0.1181,0.09897,0.22931,0.061037,-0.21524,-0.18209,0.053194,0.14226,-0.068991,-0.14284,0.027373,0.11967,-0.051602,-0.079067,0.095943,0.025414,-0.23294,-0.14869,0.19124,0.14778,-0.10841,-0.065455,0.11247,-0.025976,-0.10711,0.12039,0.14655,-0.23913,-0.28488,0.21973,0.41442,-0.071317,-0.40858,-0.070628,0.34549,0.25893,-0.070308,-0.19513,-0.086915,0.051256,0.047636,-0.11726,-0.21218,-0.016123,0.22491,0.12087,-0.13344,-0.050713,0.22485,0.14249,-0.20276,-0.23734,0.062811,0.16955,0.01623,-0.13709
5.262,1.6107,-2.0406,-1.7867,0.014544,0.77009,1.3894,-0.76156,-0.046645,-0.38368,0.1868,-0.67329,0.5852,0.58137,-0.75381,0.59712,-0.23413,0.11176,-0.047996,-0.25885,0.61897,-0.70552,0.26123,0.36475,-0.6789,0.63793,-0.28455,-0.22595,0.48292,-0.43795,0.25106,0.40525,-0.44452,-0.011108,0.84211,-0.31425,-0.33573,0.47048,-0.2873,0.046955,-0.26153,0.018673,0.13439,-0.52184,0.51199,-0.34761,-0.16624,0.32366,-0.17711,0.28886,-0.1394,-0.23627,0.28192,0.064964,-0.23154,0.058242,-0.028527,0.39132,-0.54433,0.065209,0.38925,-0.32882,-0.0069034,0.13248,0.044352,-0.34561,0.38119,0.12346,-0.6214,0.62292,-0.34286,-0.1356,0.84948,-0.99561,0.84258,-0.057584,-0.74336,0.38942,-0.36057,0.547,-0.6544,0.23487,0.54401,-0.74116,0.31994,0.47652,-0.80436,0.42925,0.10548,-0.05425,-0.15648,0.0063595,0.22363,-0.19757,0.16663,0.53083
2.7689,0.89174,-0.98544,-2.1101,-0.93057,1.4289,2.9138,-2.5699,0.18041,0.73714,-1.3619,1.0515,-1.087,1.1564,-0.38214,0.31815,-0.18396,-0.19495,0.40774,-0.11996,-0.3006,0.10635,0.24023,-0.25834,-0.030911,0.17723,-0.010711,-0.18637,0.31536,-0.35159,0.32613,0.28865,-0.56764,0.51954,0.036188,-0.26029,0.33811,-0.0010668,-0.012817,-0.13921,0.025573,-0.085616,0.075003,-0.2809,-0.0031614,0.098851,-0.14628,-0.11025,0.15782,-0.066094,-0.03827,0.25636,-0.33893,0.066152,0.41997,-0.38483,-0.20682,0.43328,0.090994,-0.48092,0.38754,-0.15482,-0.061983,-0.021215,0.043681,0.29671,-0.4872,0.2224,0.022447,0.39778,-0.92048,0.59931,0.53904,-0.6773,0.36303,-0.44561,-0.21742,0.58576,-0.54028,0.25345,0.074194,-0.25126,0.61545,-0.86583,0.78041,-0.23751,-0.33412,0.50859,-0.2669,0.058742,-0.0033421,-0.10769,0.17483,0.088646,-0.17789,-0.44443
-1.2729,0.18229,1.6375,-3.5156,0.93139,1.4682,-0.486,-0.65574,0.42985,0.65326,-0.54993,0.27754,-0.28644,0.56268,-0.38151,-0.36151,1.4344,-1.7824,1.02,0.30845,-1.3727,0.94583,0.46818,-0.8098,0.044282,1.1619,-1.1038,0.66204,-0.3979,0.024135,1.0418,-1.5445,0.82702,0.25553,-0.95065,0.43736,-0.31421,-0.28601,1.4652,-2.399,1.8983,-0.57817,-0.22705,0.39868,-0.26388,0.089885,0.311,-0.52891,0.26596,0.39078,-1.0618,1.2607,-0.53865,-0.45126,1.0504,-0.67473,-0.14015,-0.44089,1.266,-0.56352,-0.68084,0.77291,-0.83544,0.81238,-0.54766,0.63994,-0.6273,0.4631,0.2756,-1.1637,1.3445,-0.84239,0.38524,-0.23133,0.039661,0.33926,-0.29134,-0.058123,-0.14076,0.69986,-0.43945,-0.29937,0.5377,-0.30273,-0.024343,0.37776,-0.39633,-0.062365,0.49313,0.044966,-0.53207,0.13898,0.066468,0.70213,-0.44764,-1.5974
-0.38653,0.13856,0.66365,-0.10988,-0.073898,0.14487,-0.57007,-0.56917,0.095332,-0.17752,-0.11686,0.8066,0.4223,-0.66593,-0.20134,0.57926,0.023743,-0.39298,0.21874,0.38533,-0.38883,-0.60656,0.25395,0.58772,-0.1233,-0.35666,0.12765,0.13396,-0.20367,-0.019419,0.27731,0.079671,-0.1593,-0.041037,-0.041638,-0.24869,0.030481,0.48815,0.08833,-0.50295,-0.053872,0.53807,0.14575,-0.37621,-0.17162,0.19609,0.17293,0.02103,-0.017426,-0.04703,-0.076235,0.05319,0.15143,-0.032331,-0.13783,-0.003211,-0.027887,-0.083649,0.089346,0.093714,-0.13225,-0.10677,0.063703,0.026754,-0.013639,-0.0023088,-0.09148,-0.01295,0.14819,-0.036311,-0.13815,0.15176,0.087298,-0.28682,-0.098607,0.19274,0.022709,0.073456,0.22024,-0.11083,-0.14499,0.12756,-0.25358,-0.36688,0.43461,0.38768,-0.4758,-0.13032,0.64197,0.014315,-0.73543,-0.034572,0.7425,-0.079333,-0.60909,-1.1388
1.0683,-0.38293,-1.8341,-1.3104,1.1814,2.0771,-1.0988,-0.44124,0.72565,-1.0291,-0.73664,0.714,0.8908,-0.75423,0.56893,-0.23363,0.022483,-0.1478,0.41973,-0.2418,-0.19797,0.10514,0.15065,0.037867,-0.38599,0.45257,-0.56522,0.49202,-0.090951,-0.063437,0.3242,-0.20717,-0.1458,0.69492,-0.18623,-0.28453,0.49338,-0.27429,-0.0096367,-0.04846,-0.1685,0.24519,-0.34021,0.01961,0.12947,-0.1755,-0.090495,0.045546,0.25919,-0.24629,0.014164,0.13587,-0.080148,0.0018808,-0.18144,0.44249,-0.47116,0.38871,-0.39398,0.308,-0.066852,-0.18309,0.20792,-0.2285,0.46871,-0.4986,0.20971,0.25629,-0.57129,0.50887,-0.18156,-0.099814,0.34351,-0.099738,0.054198,-0.61294,0.36559,0.040182,-0.4766,0.57231,-0.14639,0.13157,-0.22316,0.21622,-0.12222,0.16411,-0.51674,0.75556,-0.32165,-0.26443,0.19196,0.12511,0.073755,-0.19768,0.20114,0.59995
6.3288,0.38761,-5.5536,4.2335,-2.4604,-1.9963,5.6048,-1.6289,-1.3316,0.32359,0.75983,-0.88834,-0.16421,0.30526,0.66302,-0.69556,0.17057,0.27577,-0.62322,0.96377,-0.73511,-0.13507,0.76134,-0.69373,0.4375,-0.5512,0.51146,0.30117,-1.3347,1.6069,-0.036916,-1.2267,0.96555,-0.062215,-0.38,1.234,-1.0965,-0.22478,1.3512,-1.6101,0.87327,0.21274,-1.23,1.1066,-0.63323,0.052511,0.51467,-1.2749,1.1009,-0.084159,-0.82191,1.1767,-0.81037,-0.10588,0.79949,-0.51176,0.15449,-0.25916,-0.012586,0.75257,-0.94703,0.53085,-0.40624,0.28652,0.35962,-0.80528,0.81357,-0.97449,1.2115,-0.90538,-0.13183,1.3396,-1.0978,0.58541,-0.63487,-0.21351,0.85348,-0.7639,0.17925,0.02411,0.10168,0.050876,0.1201,-0.44751,0.58622,-0.39903,0.059453,0.13989,0.037905,0.075374,-0.7492,0.99097,-0.28406,-0.43078,0.33116,1.0931
0.2536,0.71498,1.1764,-5.3013,2.4376,-1.602,0.66333,3.9518,-3.1314,0.044767,0.54736,0.070156,-1.2822,0.80566,-0.1478,0.55216,-0.17033,-0.19035,0.3451,-0.50643,0.65816,-0.58201,-0.093838,0.84614,-0.83757,0.36094,0.065153,-0.29494,0.095132,0.59482,-0.75054,0.23857,0.59715,-0.69767,0.48961,-0.065849,0.12935,0.15459,-0.50693,0.31166,-0.20392,0.36714,-0.90842,1.0387,-0.62119,-0.39197,0.70238,-0.56776,0.37956,-0.2636,-0.10742,0.52324,-0.54827,0.29095,0.11305,-0.35809,0.52831,-0.50539,0.31263,-0.45354,0.54759,-0.22803,-0.22599,0.48796,-0.38396,0.11593,-0.20005,0.56326,-0.70759,0.52041,-0.23032,0.44997,-0.014493,-0.6663,0.54999,-0.6252,0.39268,-0.15952,-0.24656,0.59177,-0.47134,0.69505,-1.0218,0.8644,-0.069749,-0.61104,0.79718,-0.70408,0.49748,-0.14966,-0.32186,0.65704,-0.54893,0.17889,0.19915,0.21942
-3.8775,-2.194,-0.51059,0.29644,-3.6192,7.3985,-4.7708,0.61625,1.9921,-2.7019,0.9468,0.4057,-0.05344,0.53723,-1.1683,1.0275,-0.14725,-0.44241,0.19492,0.052024,0.018236,-0.077386,0.50565,-0.57773,0.85862,-0.92829,1.6121,-1.4667,0.32902,0.84818,-1.4571,1.1485,-0.97461,0.77036,-0.54229,-0.30581,0.66001,-0.28117,-0.63506,1.0761,-0.69809,0.34612,-0.3257,0.6669,-1.2968,1.8569,-1.8563,1.4915,-1.5755,1.7398,-1.2101,0.36431,0.022958,0.17335,-0.096186,-0.55243,0.78265,-0.18042,-0.23569,0.033411,0.18584,-0.22772,0.32544,-0.36535,0.27711,-0.2089,0.23108,-0.1791,0.047536,0.075221,-0.11678,0.1299,-0.24962,0.38254,-0.31318,-0.077178,0.55255,0.089636,-0.46467,-0.18844,0.61335,-1.1829,0.70547,-0.21212,0.32446,-0.32845,0.72617,-0.6114,-0.25266,0.881,-0.76904,0.40574,0.066546,-0.24792,0.20879,0.66549
-0.74788,0.06265,0.87318,-0.51481,-1.819,-0.14612,0.29456,-0.58718,1.2986,1.0651,-0.88032,-0.07217,0.31393,-0.67104,-0.010106,0.67035,-0.33971,-0.53825,0.40042,0.11955,-0.18866,0.33157,-0.072534,-0.30658,0.24115,0.19545,-0.13901,-0.25485,0.25582,0.27843,-0.66612,0.16822,0.59009,-0.94175,0.32001,1.0922,-1.2193,-0.34253,1.157,-0.39002,-0.42321,0.54098,0.13051,-0.34261,-0.25484,0.35215,0.4347,-0.35929,-0.36225,0.55517,0.29839,-0.70121,0.094319,0.59889,-0.59078,-0.22028,0.49462,-0.21129,-0.045942,0.21672,-0.31282,-0.087876,0.23506,0.032725,-0.18204,-0.18837,0.20474,0.13783,-0.20454,0.12482,0.013314,-0.27451,0.25733,0.17561,-0.24687,0.012622,-0.044279,-0.036793,0.26714,-0.038948,-0.23568,0.028514,0.13745,0.034172,-0.12988,-0.026156,0.17514,-0.078187,-0.33771,0.27257,0.50368,-0.38339,-0.6654,0.59097,0.30937,0.027772
1.9497,1.27,0.5902,-4.2196,0.79297,0.016888,0.68916,2.5617,-1.5614,-1.6726,1.5236,0.53122,-2.5566,1.4744,0.66981,-0.62785,0.15276,0.49677,-0.78308,0.3731,0.088411,-0.19831,-0.081281,0.069949,0.30695,-0.6571,0.58583,-0.1522,0.59151,-1.1503,0.6852,0.43993,-0.90448,0.81737,0.20735,-0.65969,0.49105,-0.081039,-0.073962,0.040251,-0.52091,0.76429,-0.89941,0.89874,-0.96163,0.34385,0.37607,-0.94073,1.0226,-0.78667,0.27202,0.2144,-0.41476,0.69878,-1.0722,1.0289,-0.42187,0.12077,-0.035852,-0.56185,0.72679,0.16375,-0.53942,-0.10792,0.081534,0.55786,-0.63903,0.38938,0.58564,-2.3561,3.5336,-2.2268,0.22153,0.44448,-0.86006,1.4346,-2.0353,1.2246,0.063139,-0.84945,1.388,-1.2852,0.86277,-0.21882,-0.27407,0.61233,-0.80119,0.8266,-0.75326,0.37586,0.5685,-1.1844,0.70689,0.09983,-0.095468,-0.29077
3.7639,1.3119,-1.1401,-2.5289,1.3789,-1.3741,2.6396,0.015536,-1.7336,1.1858,-1.0383,0.76792,-1.1586,1.1156,-0.19691,-0.0064681,0.16792,-0.36358,0.71323,-0.43412,-0.44363,0.61929,-0.17231,0.32984,-0.73122,-0.010761,1.0953,-1.0989,0.84835,-0.78117,0.31266,0.41711,-0.42677,0.46485,-0.33327,-0.04156,0.502,-0.24705,0.20601,-0.23153,-0.34982,1.0192,-1.283,0.54883,-0.075519,0.027895,-0.30949,0.099216,0.32208,-0.3575,0.37194,-0.64521,0.44002,0.30073,-0.56818,0.22831,0.065649,-0.020098,-0.027809,-0.303,0.5188,-0.2242,-0.083403,-0.078079,0.21693,0.13836,-0.74476,0.85512,-0.39844,0.013692,0.27664,-0.43882,0.46412,0.049895,-0.35529,0.1901,-0.39173,0.098575,0.24326,-0.23609,0.038,0.053352,0.2116,-0.45681,0.40994,0.041482,-0.36818,0.53569,-0.3815,-0.29942,0.53938,0.022061,-0.40561,0.30259,0.031834,-0.23892
0.5203,0.432,0.34371,-1.3861,2.214,-1.3994,-1.281,2.4085,-1.2886,0.40987,0.071809,-0.62745,0.81547,-0.40926,-0.15655,0.65752,-0.77886,0.052092,1.0084,-1.1499,0.58071,-0.0068108,-0.030631,0.8381,-1.1443,0.41969,0.57941,-0.63357,-0.042947,0.55168,-0.86393,0.41463,0.17965,-0.6279,0.78751,-0.95247,0.36159,0.92025,-1.2003,0.18413,0.43152,-0.2846,0.2459,-0.23636,0.17371,-0.21566,0.14662,-0.27469,0.38814,-0.014288,-0.34345,0.44124,-0.90459,0.85035,0.28431,-0.96937,0.61747,-0.2592,-0.11387,0.60492,-0.68014,0.17222,0.18702,-0.025508,0.1744,-0.20981,-0.16607,0.22945,0.25663,-0.21049,-0.20029,0.19667,0.054084,0.0071579,-0.60905,0.1209,0.63433,-0.48212,0.22959,0.13513,-0.40959,0.61649,-0.96356,0.43256,0.74989,-0.93429,0.47943,0.0031068,0.7941,-0.17973,-0.36663,-0.38813,-0.69395,-0.5558,0.2356,1.027
2.4194,0.096945,-2.2255,0.94367,-1.3288,-1.5511,4.2411,-0.15505,-2.5306,1.4142,0.33478,-1.2175,-0.044201,0.58489,-0.00015562,0.09982,-0.3017,0.66369,-0.51817,-0.27158,0.66507,-0.48825,0.45846,-0.25106,-0.37979,0.68692,-0.41625,0.1172,-0.10043,0.22367,-0.0097441,-0.069753,0.17843,0.33251,-0.54453,0.32444,0.33482,-0.51316,-0.027344,0.21759,0.23468,-0.98528,1.1949,-1.1671,0.61472,0.11216,-0.72459,0.55458,-0.33425,0.51309,-0.63396,0.18068,0.61711,-1.0222,0.7536,-0.36227,0.34598,0.23366,-1.1452,0.82649,0.25218,-0.68519,0.58136,-0.31386,-0.19378,0.52358,-0.46014,0.098012,0.30591,-0.4945,0.36972,0.16661,0.19265,-0.47636,-0.21554,0.21567,-0.17342,0.22819,-0.42956,0.32653,0.60397,-1.1126,0.44523,0.7161,-1.2795,1.1837,-0.70248,-0.012297,0.55941,-0.35725,-0.037736,0.0010706,0.031226,0.26527,-0.010644,-0.28656
2.168,0.32592,-1.5162,-1.3533,-0.090058,3.1392,-0.91247,-1.1253,1.5088,-2.2515,0.37423,0.82915,-0.22715,0.29641,0.02686,-0.20768,0.13627,0.14636,-0.58298,0.4952,-0.099878,-0.25454,0.176,0.02588,0.042629,-0.33361,0.6855,-0.43344,0.35256,0.040676,0.25665,0.17134,-0.47198,0.46476,-0.052685,-0.58778,0.31777,-0.17102,-0.15044,0.084526,-0.27286,0.32149,-0.33967,0.17445,0.18928,-0.31212,0.20457,0.20382,-0.44359,0.14642,0.29661,-0.43284,0.14576,0.13205,-0.11493,-0.021913,-0.10445,0.26427,-0.22177,-0.054635,0.46318,-0.59474,0.34155,0.0342,-0.19132,0.16006,-0.31392,0.67943,-0.78076,0.39548,0.25694,-0.59172,0.26945,0.21148,-0.21804,0.24549,0.15828,-0.4288,-0.30572,0.21176,0.25324,-0.26261,-0.0080269,0.344,-0.28724,-0.0046667,0.40893,-0.43566,0.17584,0.0064185,0.028912,-0.16381,0.059323,0.37029,-0.42628,-1.2228
-0.42426,-0.93713,-1.45,-1.1876,1.4587,2.7899,-2.5892,0.14412,1.0769,-1.8155,0.46734,0.084326,0.68381,-0.91031,0.9644,-0.137,-0.43027,0.26282,0.18467,-0.28538,-0.041362,0.24506,-0.15366,-0.0028781,-0.052823,0.057712,0.03035,-0.090419,-0.01853,0.31181,-0.23454,0.26298,-0.077893,0.21554,0.33095,-0.54924,0.29345,0.27237,-0.45355,0.009732,0.091671,-0.21122,0.039798,-0.2565,0.26762,-0.078646,-0.21032,0.13694,0.080466,-0.097857,0.026452,0.080134,-0.071808,0.048903,-0.19955,0.25818,-0.13407,0.14519,-0.3274,0.26026,-0.00089445,-0.21772,0.27554,-0.070102,-0.24944,0.19866,0.26402,-0.48567,0.322,-0.037136,-0.072713,0.0054583,-0.14814,0.62123,-0.26357,-0.29163,0.087602,0.12374,-0.29998,-0.14132,0.46708,-0.48003,0.54095,-0.39878,0.35585,-0.049046,-0.34428,0.3298,-0.02064,-0.041794,-0.143,0.20098,-0.082935,-0.053029,0.14485,0.34272
2.2211,0.012245,-2.1966,0.49446,-2.315,1.2708,2.962,-2.5817,0.66895,0.37041,-0.87158,0.14904,0.10723,0.42835,-0.37196,-0.0081201,0.68618,-0.86707,0.40836,0.12947,-0.41767,0.61226,-0.63063,0.17126,0.3453,-0.44937,0.26002,-0.094553,0.26892,-0.51308,0.38856,0.1319,-0.22852,0.31625,0.014864,-0.046928,0.41609,-0.39187,-0.17221,0.76601,-0.8627,0.054407,0.32215,-0.394,0.0075869,0.13029,-0.25514,0.16491,0.028453,-0.22859,0.27514,-0.071124,-0.09571,0.096866,0.073896,0.06457,-0.45832,0.59121,-0.46425,0.18515,0.10748,-0.2982,0.33214,-0.3499,0.29757,-0.09798,-0.22132,0.39598,-0.20885,0.13538,-0.19486,0.16411,0.3799,-0.43642,0.028748,-0.14914,-0.081219,0.15834,-0.2337,0.17504,0.39647,-0.33573,-0.48391,0.9584,-0.49552,-0.027549,0.047759,0.16491,-0.061228,-0.37014,0.47704,-0.085751,-0.38377,0.6675,0.028221,-0.61106
-0.52132,0.15146,0.82423,-0.63726,-1.7213,0.66652,-0.067532,-0.30033,0.95011,-0.086128,0.21756,-0.19162,-0.23989,0.32633,-0.46323,0.21302,0.054523,-0.011117,0.3726,-0.58309,0.31927,0.23989,-0.50952,0.49894,-0.31508,-0.30902,0.68803,-0.36258,-0.43266,0.60841,0.00075715,-0.48874,0.39539,0.29977,-0.49221,-0.056519,0.41744,0.13831,-0.16631,-0.3193,0.15613,0.3798,-0.19057,0.12934,0.088383,-0.60136,0.16561,0.67801,-0.50138,-0.38039,0.47472,-0.053605,-0.18307,-0.17435,0.034915,0.4305,-0.33631,0.17876,0.041688,-0.51662,0.59712,-0.23186,-0.24647,0.37439,-0.18375,0.37449,-0.51228,-0.10946,0.98961,-0.71365,-0.20083,0.50415,-0.27159,0.12603,-0.10058,-0.48435,0.72813,-0.064768,-0.92233,0.8746,-0.11335,-0.7693,0.89013,-0.17961,0.024325,0.029279,-0.45838,0.74518,-0.28579,-0.4904,0.61063,-0.037862,-0.42345,0.55422,-0.19124,-0.93671
3.2924,0.76789,-1.7566,-1.3838,-0.69782,0.74135,4.0723,-3.2331,0.063964,1.8062,-3.0943,0.76868,-0.17293,1.6228,-0.60908,-0.53978,0.27162,0.92827,-1.326,0.78823,-0.27193,0.24477,-0.32456,-0.16521,1.5457,-2.7704,2.3005,-0.49528,-1.133,2.1521,-2.1122,0.83614,1.4585,-2.0735,1.1832,-0.084913,-0.17954,0.32465,-0.49532,0.57843,-0.81979,0.62678,-0.88839,1.3236,-1.3321,0.13846,0.41378,-0.37895,0.92636,-1.2817,0.1847,0.86939,-0.21749,-0.57289,0.21344,0.81336,-1.3346,1.1494,-1.1525,1.2992,-0.72055,-0.59917,1.8319,-1.931,0.59823,0.67915,-0.82182,0.069986,0.5255,0.029085,-0.85703,0.86156,0.15642,-1.0893,1.911,-1.5586,-0.6409,1.5963,-1.028,0.40518,-0.62332,0.58823,0.4957,-1.0074,0.39329,0.79454,-1.2869,0.41955,0.73718,-0.89583,0.69021,-0.56874,0.080509,0.46349,-0.38212,-1.2277
1.171,0.44216,-0.28669,-1.1809,0.29281,0.58462,-0.76626,-0.44562,0.49832,0.38808,0.2581,-0.09889,-0.41205,0.18838,0.35075,-0.25053,-0.21316,0.14646,-0.02518,-0.11149,0.22637,0.15456,-0.27366,0.018331,0.24973,-0.30135,-0.094287,0.4324,-0.14063,-0.2884,0.21062,-0.067254,-0.066266,0.29281,-0.18954,-0.29158,0.32702,0.21561,-0.17692,0.020669,0.10023,-0.14491,-0.0044985,0.21083,-0.10006,-0.11231,0.35848,0.015198,-0.61322,0.048239,0.87485,-0.044328,-0.98717,0.1734,0.79048,-0.53953,-0.40294,0.60227,-0.20219,-0.26358,0.55355,-0.36132,-0.52932,0.70045,0.24094,-0.51249,0.0064711,0.11391,0.029143,0.080317,-0.20839,0.091792,0.25368,-0.34822,0.0092618,0.52539,-0.3026,-0.46448,0.44332,0.21099,-0.4646,0.18376,0.51406,-0.96241,-0.72527,1.5391,0.47426,-1.4686,0.19879,0.4397,-0.83221,0.3967,-0.17208,-0.71575,1.5152,3.7462
3.9153,-0.18852,-4.2923,3.1589,-2.0584,-1.9567,5.4893,-1.6734,-1.9902,1.9061,0.020251,-1.6258,-0.19248,1.8601,-1.1453,0.65132,-0.27319,-0.15891,0.37645,-0.2173,0.25903,-0.27507,-0.14767,0.10781,0.12624,0.047618,0.027407,-0.044793,-0.25333,0.18539,0.54171,-0.63213,0.26341,0.065024,0.25568,-0.38955,0.31778,0.39493,-1.0887,0.91801,-0.4462,-0.10042,0.072732,0.44331,-0.75959,-0.04981,0.66973,-0.62528,0.096241,0.092086,-0.056363,0.12818,-0.099094,0.16128,-0.25867,0.30865,-0.21444,0.038962,0.044041,0.066494,-0.20974,0.13092,0.019211,-0.12754,0.23865,-0.17681,-0.13353,0.004761,0.44591,-0.4358,-0.014844,0.67368,-0.44656,-0.082181,0.10506,0.012391,-0.66356,0.65388,0.090833,-0.85813,0.98364,-0.4315,0.19161,-0.51873,0.96886,-0.41545,-0.7724,1.377,-1.0529,0.2873,0.16581,-0.21202,0.42246,-0.72318,0.33942,1.402
1.3473,-0.77934,-2.906,0.47269,0.089415,2.393,-0.39138,-1.3062,1.0478,-1.2118,0.52184,-0.10032,0.01506,0.39902,-0.24668,0.15275,-0.27003,0.54149,-1.051,0.96448,-0.0093136,-0.70228,0.53961,-0.50942,0.77191,-0.59557,0.088679,0.08499,0.14527,0.18351,-0.67644,1.0541,-0.12045,-0.5179,0.69843,-0.46304,0.34858,0.031245,-0.50615,0.60391,-0.78168,-0.24046,1.124,-1.1258,0.18961,0.51134,-0.71804,0.2171,0.4419,-0.49814,0.36033,-0.11386,-0.45105,1.1475,-1.0445,-0.072609,0.85725,-0.62034,-0.18032,0.71451,-0.49106,0.085868,-0.099392,0.22571,-0.079676,-0.41125,0.87063,-0.79048,0.30211,0.072096,-0.26457,0.42013,-0.58523,1.1342,-1.1755,0.63429,-0.062024,-1.308,1.7824,-0.95381,0.1015,0.27448,-0.004065,-0.24984,0.33627,-0.1741,0.081315,-0.031015,-0.32397,0.75144,-0.52216,-0.16391,0.48526,-0.37521,0.1508,0.67681
3.0052,1.5319,0.058619,-4.2048,0.58981,-0.098906,3.2735,-0.45547,-1.2378,0.073114,-0.48783,2.0537,-3.3071,2.2585,-0.33754,-0.14856,0.0014681,0.18262,0.1854,-0.34395,-0.33585,0.73269,-0.074379,-0.71077,0.86976,-0.80908,0.27479,0.60915,-0.72353,0.10309,1.1169,-1.4996,1.1352,-1.4737,3.0183,-2.1759,-0.40479,2.1114,-3.3578,4.3447,-4.123,2.5655,-1.1067,-0.32962,0.6602,-0.76322,1.1302,-1.6824,1.8269,-0.94656,-0.36069,1.2575,-2.0314,2.6917,-2.4354,1.2022,0.69271,-1.6009,0.50994,0.49795,-0.082733,-0.29247,-0.055104,0.16024,0.085951,-0.29549,0.52937,-0.3318,-0.73118,1.8814,-2.1561,1.5295,0.35351,-1.5937,1.2748,-0.52478,-0.23361,-0.18717,0.38735,0.21374,-0.75286,0.9849,-0.79696,0.41688,0.33657,-0.30157,-0.46933,0.11906,0.8825,-0.61514,-0.4852,1.13,-1.0285,0.34065,0.32912,0.31758
2.2074,0.29516,-1.6171,-1.9419,0.035691,-0.69736,4.5775,-1.9525,-1.3371,1.9567,-1.8177,1.6933,-2.0615,1.6689,-0.68594,0.27402,-0.12279,0.10814,-0.13299,0.10396,-0.044197,0.15405,0.0029882,-0.70048,0.89452,-0.2976,-0.10199,0.055015,0.047852,0.14373,-0.29052,0.4971,-0.2476,0.25584,-0.059054,-0.35099,1.2943,-1.3524,0.2335,0.94305,-1.6576,1.4909,-1.1436,0.38819,0.1881,-0.40477,0.092834,-0.12811,0.24302,-0.11322,-0.14928,0.092817,0.28014,-0.41287,0.17468,0.19786,-0.14367,-0.02369,-0.21827,0.49218,-0.45913,0.29416,-0.18049,0.04003,0.189,-0.73661,1.2536,-0.78026,-0.34526,0.67247,-0.34222,0.31365,0.19284,-0.56284,0.39762,-0.2183,0.050938,-0.36213,-0.079974,0.66168,-0.5192,0.20787,-0.27386,0.83188,-0.6246,-0.13487,0.42665,-0.15563,-0.064139,-0.013413,0.22947,-0.16421,0.052321,-0.2199,0.16366,0.54723
2.5316,1.0591,-0.41335,-4.0064,0.9628,-0.56636,3.0094,-0.1442,-0.97143,0.35519,-1.7456,2.972,-3.1071,1.6292,0.057779,-0.30815,0.53067,-0.91985,0.99642,-0.59763,-0.19767,0.73177,-0.4315,0.25798,-0.69479,0.39217,0.45908,-0.6869,0.57201,0.12826,-0.94849,1.965,-1.8106,0.24666,1.3708,-1.2763,0.69376,-0.4792,0.46255,-0.20595,-0.47816,0.78247,-0.96627,0.37528,0.27837,-0.61164,0.28194,-0.088162,0.034067,-0.21198,0.36115,0.37071,-1.0204,0.55457,0.43921,-0.88657,0.49453,0.144,-0.19942,0.0060121,-0.099256,-0.029638,0.43423,-0.57948,0.20678,0.36638,-0.58772,0.55754,-0.76711,0.87292,-0.37575,-0.0088493,0.61548,-0.5701,-0.36971,0.21889,-0.046383,0.1791,-0.17346,-0.10497,0.45849,-0.2366,-0.089901,-0.18389,1.4306,-2.0101,0.99152,0.11611,-0.41157,0.55179,-0.75631,0.64511,-0.30224,0.23331,-0.072816,-0.37894
1.6767,1.0916,0.50659,-4.341,1.7177,-1.0049,1.0277,2.6953,-2.348,-0.42097,1.0247,-0.21927,-1.7529,1.2857,0.28084,0.0043046,-0.20475,0.27258,-0.29942,0.35214,0.024317,-0.70738,0.69983,-0.025527,-0.28573,-0.051825,0.012408,0.32062,-0.22321,0.00075396,0.16554,0.09036,-0.014163,-0.019609,0.19778,-0.049139,0.15798,-0.35217,0.29864,0.30867,-0.95563,0.72047,-0.33426,0.1363,-0.32861,0.21089,0.20302,-0.63612,0.20058,0.04435,0.34437,-0.28405,-0.3649,0.49206,0.0037069,0.15901,-0.81173,0.6951,0.076148,-0.49559,0.32999,-0.13627,0.10321,-0.07758,0.14307,-0.31586,0.0089282,0.58105,-0.72629,0.53077,-0.49827,0.7028,-0.071024,-0.52799,0.62378,-0.70613,0.2151,-0.057728,-0.22039,0.62034,-0.72909,0.57102,0.10811,-0.70451,0.85935,-0.24205,-0.58979,0.9245,-0.66128,0.10907,0.42674,-0.70041,0.62655,-0.27322,0.056357,0.38593
0.97623,0.22072,-0.53479,-0.72172,0.36684,-0.39734,-0.37733,0.18647,0.16726,0.83258,-0.24979,-0.80489,0.93867,0.036337,-0.74558,0.3732,-0.16239,-0.17536,0.43589,-0.072452,-0.11464,0.085449,0.011608,0.027319,-0.060015,-0.060137,0.073295,-0.0047248,-0.11206,0.1557,0.042005,-0.22225,0.18638,0.12645,-0.26548,0.10899,0.22133,-0.14546,0.068988,0.23204,-0.18576,-0.095482,0.26877,-0.007003,-0.17361,0.006742,-0.15525,-0.059683,0.40265,-0.13196,-0.41978,0.43306,-0.0151,-0.45016,0.41397,-0.028753,-0.41404,0.17533,0.17684,0.10215,-0.36117,-0.1424,0.67921,-0.23724,-0.38819,0.50516,-0.18727,-0.26388,0.49609,0.059306,-0.32431,0.035129,0.085973,-0.074387,0.022434,-0.088934,-0.049266,0.038478,-0.26525,0.17089,0.28336,-0.32772,0.17951,0.18477,-0.39785,0.14577,0.14901,-0.27598,0.19233,0.20273,-0.44343,-0.070939,0.58634,-0.062696,-0.56278,-1.0629
-2.8922,-1.0504,0.79147,-2.1881,1.9181,1.623,-2.3915,1.279,-0.43975,-1.6659,1.44,0.36212,-0.6544,0.6057,-0.14154,-0.16477,0.39993,-0.57345,0.3677,-0.057574,-0.13264,0.073146,-0.20062,0.24917,-0.13835,0.17569,-0.17752,0.091007,0.33792,-0.0018367,-0.17564,0.55762,-0.22817,0.013219,0.17247,-0.24759,-0.10755,-0.058124,0.090217,-0.30584,0.072055,-0.1196,0.12021,-0.049144,-0.099144,0.20078,-0.077912,0.013157,0.075953,-0.18627,0.27513,-0.15173,-0.081783,0.28608,-0.43749,0.32588,-0.14336,0.11913,-0.23167,0.32604,-0.30184,0.068434,0.22256,-0.32058,0.16818,-0.088343,0.33158,-0.38421,0.084734,0.21107,-0.22731,0.094155,0.19747,-0.16913,0.39679,-0.74034,-0.048058,0.52191,-0.52539,0.42881,-0.11297,-0.20236,0.18306,0.22226,-0.15093,-0.18478,0.12012,0.097786,0.0383,-0.14342,-0.14223,0.57163,-0.65292,0.6461,-0.065433,-0.77696
-3.3646,-0.94486,1.4748,-0.63071,0.09415,0.45509,-1.54,2.1745,-0.71681,-1.3351,1.7061,-0.4722,-0.2598,-0.28585,0.66854,-0.62827,0.80275,-1.0979,1.2031,-0.61374,-0.11791,0.88175,-1.854,2.2882,-1.1544,-0.34302,2.2839,-2.6783,1.6386,-0.68637,-0.43557,2.5873,-3.4936,1.1829,0.92487,-1.2104,0.14643,0.39622,-0.013526,-1.0677,2.3057,-3.1733,2.7928,-1.965,1.2981,0.21045,-1.234,0.65819,0.095048,-0.149,-0.48575,1.262,-1.4429,0.97756,0.13015,-1.6383,2.0289,-1.244,0.77413,-0.60641,0.43123,-0.8071,0.85746,0.62692,-1.6895,1.6906,-1.4638,0.7705,-0.32781,0.43394,-0.74532,0.46135,-0.075119,0.13789,0.52927,-1.5922,1.4948,0.12936,-2.0032,2.1805,-0.27564,-1.3819,1.4309,-0.52352,-0.53541,0.55219,0.93286,-1.7461,2.123,1.5266,-4.7661,2.726,-2.0706,-1.5969,2.9655,7.528
2.4237,-0.0026432,-2.429,-0.018777,-0.65761,-1.2895,3.5874,-0.15255,-1.5992,1.0595,-0.40441,0.068879,-0.30428,-0.48754,0.48241,1.1597,-1.6125,0.9057,-0.096743,-0.67354,1.2013,-1.0732,0.68296,-0.45101,0.0029811,0.81718,-1.7733,2.2273,-1.3246,0.023153,0.87423,-1.5901,2.2566,-0.97583,-0.87901,1.1967,-0.0194,-0.11043,-0.80336,1.2102,-0.8991,0.15801,0.14209,-0.25222,0.14667,-0.43141,0.50446,-0.50365,0.37571,-0.07667,-0.53634,0.94216,-0.70221,0.42178,-0.22991,-0.19754,0.56303,-0.63064,0.82873,-0.94021,0.34296,0.54555,-0.88023,0.5943,-0.17806,0.18514,-0.37317,-0.20599,0.9511,-0.38237,-0.82706,1.0161,-0.12642,0.52419,-1.5035,1.1054,-0.28326,-0.70644,0.99428,-1.0374,1.4847,-1.5521,0.89108,-0.19352,0.39518,-0.53985,0.22269,0.13836,-0.44994,0.77258,-0.84583,0.44979,-0.033531,-0.20424,0.45818,1.1206
-2.273,-0.61622,1.0405,0.27297,-1.152,-0.67378,0.46135,0.67036,0.18609,-0.14984,-0.067593,0.16459,0.018417,-0.19771,0.070052,0.22626,-0.035378,-0.12381,-0.027961,-0.030075,0.013028,0.15764,0.014437,-0.16609,-0.0098738,0.077469,-0.013263,0.023352,0.025476,0.022405,-0.015986,-0.13867,0.12359,0.23256,-0.1851,-0.094076,0.20023,0.010379,0.054866,0.088052,-0.16502,0.017362,0.16621,-0.1146,-0.10956,0.096944,0.018316,-0.099219,-0.026664,-0.014572,-0.012593,0.081056,-0.14694,-0.18695,0.28922,0.13414,-0.21647,0.058439,-0.086702,-0.20789,0.23191,0.030191,-0.23367,0.049781,-0.0029571,-0.0010688,0.17355,-0.034306,-0.059126,0.085971,-0.047459,-0.027809,0.11288,-0.037905,-0.12475,0.1166,0.088022,-0.18787,0.041714,0.22169,-0.13165,-0.14728,0.019037,-0.015767,0.1678,0.10928,-0.19497,-0.085167,0.030908,0.082933,0.17787,-0.13782,-0.24553,0.27314,0.21689,0.16065
-1.3564,-0.23593,0.88457,0.43885,-1.1233,-0.70112,0.62121,0.092063,-0.71696,0.069595,0.66109,0.23335,-0.19689,-0.3055,0.16617,0.39983,-0.31339,-0.1369,0.55337,-0.40834,-0.70913,0.73952,0.47159,-0.75693,-0.056656,0.50841,-0.12966,-0.12451,0.068627,-0.073334,0.092182,-0.020951,-0.15056,0.21536,-0.037164,-0.386,0.2928,0.43572,-0.29792,-0.19599,0.2351,0.029173,-0.04411,0.016851,-0.0602,0.14216,0.13755,-0.12016,0.097848,0.11347,-0.3112,-0.10643,0.27342,0.010166,-0.1212,0.077217,-0.060836,-0.21543,0.058156,0.15462,-0.17343,-0.095834,0.29509,-0.0072233,-0.35655,0.12659,0.24816,-0.17183,0.0011774,0.10396,-0.2283,-0.04129,0.20722,0.013579,-0.034252,-0.13998,-0.20223,0.33203,0.46832,-0.22325,-0.39723,0.062122,0.1145,-0.10194,-0.10071,0.046439,0.16687,0.001991,-0.15606,0.12401,0.1495,-0.19759,0.0186,0.085946,-0.28051,-0.64696
-1.2848,-0.74602,-0.20719,0.22518,-0.4087,-0.43316,0.13719,-0.04984,0.043525,0.90601,0.19641,-0.99741,0.22501,1.0091,-0.54352,-0.64199,0.469,-0.18485,-0.2852,0.77482,0.0082403,-0.80775,0.34852,0.42031,-0.54461,0.14661,0.60013,-0.43945,-0.44847,0.32607,0.11921,-0.098712,0.057969,-0.12331,0.035344,0.3368,-0.21458,-0.40778,0.36282,0.37761,-0.30436,-0.12595,0.35302,0.11572,-0.18958,-0.078613,0.016606,-0.034303,0.02769,0.11404,-0.024518,-0.14907,0.01488,0.042865,-0.13173,0.055987,0.12345,-0.25915,-0.010447,0.37219,-0.2678,-0.37436,0.48437,0.15598,-0.59352,0.12367,0.48378,-0.31705,-0.21315,0.39094,0.012572,-0.27243,0.1219,0.12665,-0.19312,-0.074286,0.14897,0.040385,-0.0026869,0.20335,0.051392,-0.44217,-0.20039,0.41528,0.097379,-0.34257,0.041947,0.19504,-0.0042122,0.076402,-0.21898,-0.34211,0.54853,0.27865,-0.66415,-1.607
-3.2309,-1.3022,0.62657,0.0083214,-1.711,-0.49738,1.1278,0.89375,-0.67428,0.61925,-0.049326,-0.00088275,-0.55904,1.0616,-0.93944,0.36239,0.061226,-0.56342,0.82659,-0.3641,0.055391,0.075916,0.082298,-0.11079,0.40703,-0.23498,0.1427,0.066581,-0.68349,1.742,-2.7613,3.0086,-3.2057,3.1061,-2.909,1.8297,-0.80401,0.23891,-0.049567,-0.37821,1.2465,-1.4741,0.88608,-0.26293,-0.021691,0.14179,-0.046815,-0.37517,0.60816,-0.23728,-0.28655,0.45203,-0.29973,0.035842,0.15485,-0.048054,0.030737,-0.30239,0.40944,-0.029261,-0.59715,0.74072,-0.24009,-0.28748,0.31524,-0.13688,0.34164,-0.31239,0.17126,0.44601,-1.4027,1.354,-1.1379,1.0236,-0.94707,0.67363,0.13952,-0.62877,0.62677,-0.34548,-0.35579,0.79688,-0.36414,-0.29836,0.73749,-0.77967,0.1881,0.41615,-0.093927,-0.30829,2.6445,-2.7967,0.41589,-1.467,-0.047458,1.3721
0.89806,0.84147,0.78488,-5.0164,1.5012,-0.99311,2.7268,1.2779,-2.9247,1.4392,-0.80604,1.3911,-2.0232,0.80901,0.55607,-0.91911,1.4953,-1.3619,0.50917,-0.3004,0.82032,-0.57978,-0.94225,2.0593,-2.2625,2.0138,-0.33251,-2.2357,3.3452,-2.2997,0.97299,0.22502,-0.6732,0.87361,-0.77684,1.0546,-0.78309,0.2924,-0.11149,-0.89121,1.8797,-1.5959,0.0078595,0.50125,-0.21965,0.051563,-0.29085,0.18672,0.28289,-0.84618,0.77979,0.24749,-1.2209,1.4492,-0.91073,-0.079333,1.5154,-2.5789,2.1383,-1.1461,0.70923,0.26856,-1.837,2.1011,-1.1594,0.33222,0.21313,-0.66631,0.83438,-0.44556,-0.42919,1.1628,-0.36216,-0.48495,0.46165,-0.44566,0.13083,-0.198,0.065915,-0.024612,-0.097468,0.93626,-1.286,0.99624,-0.33679,-0.65882,1.3591,-1.1691,0.71375,-0.36675,-0.23691,1.04,-1.1493,0.54094,0.050304,-0.44033
2.1102,1.2692,0.42824,-2.9822,0.37029,-0.94868,3.4244,-2.0981,0.068652,0.4389,-0.54614,1.6391,-2.7086,2.3789,-1.0554,0.13859,0.18151,-0.11905,-0.23783,0.32481,-0.42237,0.40609,-0.2434,-0.07153,0.31651,0.19012,-0.22493,0.070545,0.58181,-0.26759,0.16903,-0.19551,0.29348,-0.12633,-0.74672,1.0895,-0.84223,0.46873,-1.2457,1.5318,-1.2603,0.95331,-0.63576,0.41811,-0.50415,0.95943,-1.3099,1.4044,-1.0059,0.38271,0.0076706,-0.83942,1.6459,-1.6968,1.4134,-0.9745,0.14141,0.19584,0.56634,-1.0766,0.54469,0.069397,-0.28974,0.77002,-1.2992,1.1251,-0.53846,-0.14287,0.47088,-0.036501,-0.75091,1.2295,-0.86526,0.31441,-0.072834,-0.76863,2.1888,-2.3415,1.2128,-0.59263,0.73164,-0.6298,0.083423,0.72214,-1.2679,1.2605,-0.68552,-0.32912,0.72389,-0.54278,0.48866,-0.55978,0.25933,0.26801,0.053254,-0.1615
-0.41931,-1.1896,-1.96,0.20902,2.6936,-0.34647,-1.4373,1.2655,-1.3138,-0.43818,1.6494,-1.0997,0.53694,0.097695,-0.10956,0.025215,-0.31221,0.49201,-0.024358,-0.83502,1.0405,-0.61409,-0.064192,0.59663,-0.78356,0.8436,-0.48561,0.50535,0.054241,-0.050278,0.21214,-0.027732,-0.022943,-0.1956,-0.15049,0.18884,-0.016258,-0.58136,0.28098,0.44157,-0.90403,0.34629,0.67015,-1.0002,0.65801,-0.16401,-0.11646,0.18435,-0.15927,-0.0039757,0.034016,0.3401,-0.65982,0.28226,0.2246,-0.29003,0.15241,-0.22125,0.46262,-0.44066,0.05789,0.033978,0.31503,-0.37786,-0.091812,0.66797,-0.88267,0.70709,-0.48024,0.46079,0.12681,-0.48686,0.31715,-0.52299,0.36467,-0.34956,0.27961,0.060952,-0.16837,0.45753,-0.8186,1.0088,-0.77007,0.4674,-0.17859,-0.3355,0.49493,0.0028133,-0.31183,0.36208,0.98813,0.0050963,-3.1544,0.31111,1.8155,3.3198
-0.51126,-0.11186,0.28754,0.30022,-0.17681,-0.53389,-0.46596,-0.056917,0.13549,-0.11667,-0.084015,0.45534,0.45555,-0.22464,-0.31738,0.17875,0.17284,-0.078614,0.025077,-0.00049131,-0.23065,-0.0069788,0.22122,-0.068072,-0.141,0.15564,0.085455,-0.13688,0.045557,0.11552,-0.16228,-0.11124,0.16397,0.064837,-0.11012,-0.043964,-0.024947,-0.025192,0.15149,0.15025,-0.10924,-0.12901,0.09376,0.071315,-0.11007,-0.0050009,0.24993,0.16035,-0.18141,-0.18555,0.10574,0.090739,-0.11118,0.012764,0.19688,-0.024696,-0.25131,-0.038967,0.18209,0.030303,-0.20069,-0.1029,0.15966,0.15905,-0.029612,-0.12248,-0.11569,-0.0050014,0.1972,0.115,-0.25572,-0.18122,0.26937,0.17332,-0.28117,-0.17986,0.21651,0.19985,-0.046005,-0.037566,0.0024139,-0.15565,-0.17321,0.10813,0.19402,-0.092102,-0.17124,0.19598,0.32057,-0.14064,-0.37906,0.10907,0.42324,-0.35464,-0.60981,-0.86497
0.1732,-0.76668,-1.7066,0.3331,-1.6811,3.3385,1.099,-3.1202,1.887,-0.71352,-0.27666,0.32112,-0.93124,1.0825,-0.73523,1.316,-1.2843,0.51496,0.22878,-0.44128,0.30045,-0.081088,-0.29674,0.3,0.51418,-1.1733,0.7709,-0.26122,0.62932,-0.81452,0.23374,0.71441,-1.0369,0.99698,-0.44307,-0.21899,0.87243,-0.51341,-0.11901,-0.078647,0.50517,-0.66867,0.65007,-0.93676,0.65493,0.064644,-0.56753,0.17999,0.16119,0.055551,-0.43562,0.45353,-0.41256,0.27222,0.40622,-0.87923,0.60088,-0.57607,1.0349,-0.53695,-0.71201,1.0474,-0.38578,-0.18917,0.20723,-0.096455,0.21827,-0.21529,-0.3575,0.98507,-1.2318,1.4271,-0.89825,0.28917,0.17887,-1.1399,1.3928,-1.2273,0.46747,0.7405,-1.3659,0.98001,-0.22398,0.037594,0.17865,-0.61971,0.71685,-0.35549,0.02977,0.3411,-0.77723,0.65992,0.085777,-0.34891,-0.10238,0.14415
1.4126,0.98676,0.56095,-2.9202,1.3762,-2.0549,-0.3351,3.3771,-1.3503,-0.56983,0.31585,0.88839,-0.75225,-1.0843,2.2671,-1.5065,-0.042014,0.86134,-0.61152,0.1559,0.22343,-0.18779,-0.13368,0.17225,-0.063463,-0.089058,0.10172,0.31657,-0.74489,0.507,0.74934,-1.9747,1.822,-0.14182,-0.99896,1.1909,-0.71554,0.85813,-0.26251,-0.46794,0.49842,-0.52929,0.12683,-0.048371,-0.026028,0.1176,-0.13102,-0.25272,-0.25179,1.194,-1.076,-0.29869,1.3295,-1.2809,0.93193,-0.51431,-0.061306,0.64876,-0.6273,0.032031,0.23748,0.16308,-0.5919,0.5667,-0.36916,-0.29424,1.2602,-1.4821,0.82758,-0.032344,-0.51235,0.59616,-0.29871,0.68929,-0.56554,-0.32622,0.59947,-0.89343,0.69189,-0.2777,-0.28617,1.2731,-1.3634,0.21075,0.91708,-0.60539,-0.088645,-0.2636,0.68464,-0.35667,-0.063369,0.37961,-0.76288,0.79149,0.058359,-0.67477
-0.38431,-0.31699,-0.24966,0.61711,0.87797,0.003231,-0.67623,-0.22267,0.42728,0.072595,-0.52246,-0.28389,0.40354,0.38936,-0.10179,-0.26701,-0.018584,0.037167,-0.051987,-0.0048837,0.14255,0.060497,-0.089632,-0.10645,0.018505,0.022097,0.0063151,-0.0019602,-0.00027742,-0.038457,0.036761,0.15888,0.12334,-0.095743,-0.13249,0.065583,0.16929,-0.018889,-0.12191,0.047003,0.1734,-0.054338,-0.2538,-0.073262,0.29945,0.29957,-0.054543,-0.3194,-0.14052,0.13716,0.12683,-0.16032,-0.17995,0.1065,0.27696,-0.0054395,-0.26407,-0.14472,0.13064,0.063053,-0.14794,-0.11765,0.15985,0.22694,0.016795,-0.19357,-0.12361,0.058195,0.11063,-0.02026,-0.098243,0.0084028,0.13415,0.069187,-0.091159,-0.1101,0.011915,0.082805,0.034668,-0.041794,-0.099164,-0.090747,0.03353,0.17012,0.0964,-0.12689,-0.14481,0.11152,0.23073,0.0022039,-0.21625,-0.10137,0.10041,0.033497,-0.077248,-0.18799
0.9916,0.35364,-0.28432,-2.4847,1.0008,0.22426,-1.4698,1.934,1.3855,-2.0255,0.3596,0.80869,-0.85481,0.36226,0.05963,-0.28265,0.22664,-0.47942,0.11141,0.95391,-0.83783,-0.26417,0.80305,-0.70429,0.12318,0.55656,-0.4502,-0.0085236,-0.075821,0.12581,0.3543,-0.41207,-0.19515,0.62912,-0.047469,-0.38635,0.32457,0.0967,-0.21128,0.097613,0.26091,-0.040967,-0.37639,0.15336,0.19649,-0.21404,-0.050419,-0.031997,-0.060441,0.035628,-0.093324,0.061703,0.16166,-0.26729,0.054401,0.23063,-0.50723,0.27979,0.27792,-0.50691,0.40787,0.020147,-0.32683,0.18916,0.10846,0.38722,-0.35004,-0.33394,0.35761,-0.32082,0.15578,0.3686,-0.30201,-0.063757,0.1048,0.12598,-0.37845,-0.23786,0.35771,-0.32421,0.12485,0.4595,-0.42443,0.12557,0.28038,-0.45162,-0.0088861,0.2903,-0.17661,0.16335,0.1142,-0.35939,-0.014383,0.2497,0.086855,-0.075993
-1.1344,-0.12833,0.87778,0.13783,-1.4775,-0.46781,0.63968,-0.42651,-0.013518,0.89228,0.091535,-0.33586,0.010677,0.070719,0.17561,0.048671,-0.48728,-0.32787,0.44916,0.21816,-0.3261,0.23543,0.22608,-0.35312,0.076247,0.10439,-0.25904,0.11185,0.10434,0.0018473,0.11438,-0.30317,-0.050686,0.34289,-0.23257,-0.078486,0.26815,-0.23515,0.017499,0.3916,-0.24163,-0.20566,0.57972,0.15828,-0.63494,0.089165,0.4417,-0.33443,0.1169,0.27156,-0.53299,0.21353,0.3447,-0.544,0.14025,0.088278,-0.45241,0.50533,0.15913,-0.6481,0.15783,0.15177,-0.28849,0.26929,0.22447,-0.34094,-0.13037,0.19995,-0.0094218,-0.00081068,0.16542,-0.17872,-0.14398,0.23582,-0.07508,-0.037847,0.34726,-0.14898,-0.32406,0.26736,0.18595,-0.30176,-0.11822,0.28069,0.027211,-0.27042,-0.01138,0.15177,0.025229,-0.25911,0.026381,0.42649,-0.42873,-0.91428,0.6435,2.2013
-3.4184,-0.72001,1.9784,-1.6272,-1.1472,1.6065,0.096083,0.16262,-0.46646,0.9645,-0.87862,0.61865,-0.2908,-0.063113,0.29159,-0.21399,-0.10266,0.47121,-0.53246,0.36979,-0.32902,0.61267,-0.68126,0.66122,-0.26036,0.13071,0.066239,0.1541,-0.21211,0.2397,-0.24235,0.083058,-0.10614,-0.12868,0.38619,-0.86379,0.61098,-0.41524,0.33613,-0.45183,0.43875,-0.20956,0.20707,-0.39507,0.40244,-0.19598,0.088751,-0.22011,0.52686,-0.62453,0.39589,-0.35728,0.41921,-0.14677,-0.13703,0.016663,0.41681,-0.62352,0.47771,-0.40824,0.23742,0.39533,-0.83643,0.60974,-0.32098,0.53212,-0.77944,0.7796,-0.65724,0.42183,-0.10268,-0.030829,0.47211,-0.22764,-0.5555,0.40693,-0.34453,-0.065522,0.56388,-0.59247,0.33465,0.19334,-0.6511,0.86086,-0.67486,0.33193,0.03885,-0.10547,-0.066943,0.10223,0.10083,-0.42807,0.50319,0.078267,-0.094332,-0.26693
-0.3047,0.25995,0.8246,-0.88745,-1.1108,0.28103,-0.40283,0.38823,0.35115,0.12838,0.13983,-0.79687,1.0237,0.066374,-1.1255,0.44654,0.071312,0.051894,0.050045,0.014794,0.22787,-0.21218,-0.048032,-0.0035231,-0.26501,0.47503,0.14964,-0.72653,0.50789,0.16856,-0.66162,0.32891,0.33371,0.0088327,0.0096313,-0.1155,0.02362,0.1348,0.031015,0.043339,-0.16453,0.0071935,0.079784,-0.25638,0.13959,-0.12784,0.017102,0.27732,-0.47834,0.076329,0.35873,-0.45237,-0.0095256,0.3732,-0.29517,-0.041153,0.21935,-0.10326,-0.0097056,0.034231,0.07831,-0.14279,0.10062,0.087342,-0.22312,0.27066,-0.16842,-0.076608,0.23982,-0.23801,0.25673,0.053111,-0.45462,0.38644,0.22305,-0.49802,0.14433,-0.040763,-0.3621,0.32502,-0.055732,-0.29658,0.45417,0.16574,-0.25112,-0.060462,-0.10673,0.13273,0.051638,-0.257,0.55691,-0.018248,-1.0969,1.1604,0.13844,-0.88357
-0.34501,0.049103,0.44322,-2.7177,-0.33121,-0.38205,3.6244,-0.28142,-1.9092,1.6986,-1.9534,1.3946,-1.3248,0.76068,0.19136,-0.70637,1.0856,-0.95333,1.1088,-0.98722,0.12204,0.42655,-0.52528,0.85863,-1.2594,1.4091,-0.90827,-0.30184,1.2743,-1.2605,0.74205,-0.27877,0.51745,-0.42963,0.042646,0.53566,-0.27693,0.32947,-0.88788,1.1262,-0.8055,-0.16103,0.68576,-0.54475,-0.37176,0.73178,-0.54237,-0.33317,1.1058,-1.244,0.4283,0.8931,-1.2028,0.84092,-0.61163,0.20403,0.27297,-0.049846,-0.56861,0.57643,-0.12285,-0.14374,0.41333,-0.24617,-0.35867,0.079621,0.57476,-0.59203,0.28929,-0.057367,-0.07773,0.24224,0.38857,-0.81775,0.56386,-0.74417,0.23541,0.63291,-1.1415,1.2571,-0.96547,0.15271,0.98271,-1.3438,0.94905,-0.47113,0.33598,-0.69127,1.0809,-0.29908,-1.1974,1.7975,-1.5621,0.84059,0.216,-0.40859
0.7881,0.70235,0.61661,-4.0465,0.38453,0.11256,0.6626,2.317,-1.5615,-0.2136,0.21514,0.30927,0.17035,-0.73864,-0.54964,1.9394,-1.4057,-0.010126,0.51522,0.13289,-0.6531,0.087019,0.79359,-1.1327,0.79748,0.26208,-0.80031,-0.2229,0.80157,0.0075104,-0.47007,0.68306,-0.31179,-0.22758,0.94353,-0.75443,-0.0096915,0.39302,-0.33567,0.55566,-0.62407,-0.17568,0.19057,0.37248,-0.18192,-0.63851,0.31292,0.35439,-0.62814,0.12506,0.55058,-0.39047,-0.13671,0.20441,0.0027351,0.0072597,0.048427,-0.10721,-0.34557,1.1677,-1.6646,1.0582,0.33484,-1.128,0.96813,-0.28396,-0.12904,-0.81013,1.9146,-1.5606,0.5854,-0.33622,0.5989,0.26693,-0.99099,0.40378,-0.21957,0.29738,-0.18946,-0.5284,0.79256,0.034863,-0.55611,0.39642,-0.38922,0.75938,-0.52639,-0.25137,0.66249,-0.083196,-0.63991,0.2134,0.91128,-0.97513,0.034155,1.0434
0.99545,0.25678,-0.48188,-2.0514,-1.2961,0.84388,3.7674,-1.7095,-1.0225,1.4819,-1.5571,0.19745,-0.75228,1.6498,-0.80216,0.28654,0.15044,-0.076798,-0.25629,0.2919,-0.080296,0.07915,-0.56101,0.5665,0.34639,-1.5769,1.9028,-1.0478,0.20167,0.64896,-0.96335,0.56651,0.086686,0.29305,-0.41205,0.13489,0.50467,-0.80852,0.59049,-0.13278,-0.37656,0.23628,0.04382,-0.70635,1.0546,-0.65386,-0.56872,0.90772,-0.61162,0.53897,-0.31156,-0.36052,0.78538,-0.57987,0.38162,-0.49131,0.57013,-0.099937,-0.68313,0.76088,0.13679,-0.64763,0.13561,0.092377,0.20431,-0.15935,-0.12313,0.17995,-0.29494,0.79278,-1.0499,0.91238,0.2678,-1.2131,1.0032,-0.52044,-0.72206,1.0885,-0.67608,0.10973,0.90569,-1.1006,0.41455,0.24447,-0.48363,0.74437,-0.92385,0.68545,-0.19657,-0.093531,0.18852,-0.32072,0.42784,-0.35855,0.2739,0.90634
4.4788,-0.055868,-4.5905,1.4196,-0.69933,0.98279,1.8265,-0.56544,-1.4236,0.32386,2.0128,-2.9924,1.2582,0.30121,0.39461,-1.9663,3.2398,-2.897,0.94779,1.0595,-1.8968,1.4581,-0.6621,0.36395,-0.54093,0.29301,0.17257,-0.036797,0.057913,-0.24586,0.46324,-0.09862,-0.71574,2.3357,-2.0905,0.072166,1.4215,-1.8166,1.7047,-1.4414,0.48555,0.42905,-0.96774,0.91912,-1.0468,0.35953,1.3277,-2.5694,1.5699,0.52535,-1.7958,1.7315,-0.53497,-0.59174,0.50109,0.55786,-1.0554,0.26612,1.1628,-1.96,1.6809,-0.9643,0.28496,0.49733,-1.3601,1.7847,-1.8914,1.9928,-0.80812,-1.6653,2.5578,-0.89764,-0.65735,1.5218,-1.5336,0.11996,0.47182,-0.27385,0.50149,-1.1129,0.73354,0.3613,-0.74664,1.0002,-1.0385,0.78597,-0.09819,-1.128,2.0782,-1.9828,0.93853,0.78186,-2.2233,2.094,-0.3401,-2.7743
-0.80861,0.021058,0.85073,-0.09493,-1.4392,0.14145,0.68375,-0.88123,0.031982,0.64383,-0.0023925,0.11477,-0.2726,-0.046173,0.56959,-0.28884,-0.39562,0.13413,0.084344,0.28853,-0.17832,-0.3438,0.602,0.10356,-0.78102,0.07278,0.59099,-0.119,-0.32409,0.12537,0.11352,-0.066461,-0.033905,-0.01432,0.22032,-0.049703,-0.39448,0.3454,0.20973,-0.45742,0.23887,0.19342,-0.33519,0.2528,0.19963,-0.26799,-0.030839,0.16127,0.1742,-0.069665,-0.24225,0.086158,0.024995,-0.32407,0.11537,0.51863,-0.25495,-0.579,0.33909,0.35149,-0.36594,-0.093781,0.18546,-0.10411,0.018484,0.18039,-0.20988,-0.17785,0.35428,0.15876,-0.22586,-0.18144,-0.038665,0.35119,-0.021215,-0.42846,0.51153,0.17524,-0.70422,0.26756,0.26727,-0.27942,0.19937,-0.12414,-0.021297,0.16633,-0.3853,0.47893,0.11891,-0.88848,0.61439,0.54927,-1.3117,-0.10977,0.26305,0.63587
-0.011342,-0.63408,-1.2568,-0.1066,-0.24819,2.3963,-0.5427,-1.1936,1.0849,-0.63047,-0.55686,-0.53418,1.513,-0.71728,0.2855,0.23375,-0.30727,0.021264,0.32405,-0.50194,0.2887,-0.065041,-0.16033,0.34976,-0.54288,0.45068,-0.1416,0.086466,0.10252,-0.11961,0.46447,-0.15871,-0.019159,0.50127,-0.42082,-0.089001,0.31243,-0.22331,-0.14139,-0.073862,0.11774,0.023057,-0.32961,0.046913,0.25845,-0.3432,0.16759,-0.0066482,0.03034,0.034043,-0.094673,0.17507,-0.24504,0.24242,-0.1284,-0.19477,0.30886,-0.071823,-0.10459,-0.10902,0.35405,-0.30515,0.074398,0.038677,-0.087782,0.28982,-0.47339,0.39043,-0.17026,0.087252,-0.14715,0.39189,-0.22741,0.14261,-0.30851,-0.20824,0.38439,-0.17958,0.057875,-0.082681,0.24147,-0.14516,-0.096572,0.30462,-0.13856,-0.072039,-0.053482,0.25127,-0.22718,0.12557,-0.055512,-0.063037,0.15972,0.05312,-0.047077,-0.14727
1.8593,0.47314,-0.91303,-1.2676,0.60705,-0.40821,-0.2121,1.8149,0.11903,-1.3149,0.26804,0.39229,-0.53361,0.040664,0.18182,-0.59846,0.11324,0.66493,-0.26531,-0.091549,0.27467,-0.18008,0.061127,0.14136,-0.16819,-0.020112,0.043816,0.01389,0.015515,-0.087493,-0.022977,0.11668,0.058349,-0.068682,-0.013856,0.0075156,-0.053055,0.040509,0.014468,-0.091445,0.033368,0.07359,0.11877,0.11024,-0.17414,0.03692,0.21694,-0.20737,-0.049389,0.15176,-0.23064,-0.062547,0.24063,0.031693,0.0051609,0.062026,-0.12413,-0.13254,0.067879,0.049767,-0.0583,8.2973e-05,-0.053071,-0.051122,0.060109,-0.024741,-0.00060756,0.0034244,-0.081238,0.09383,0.025622,-0.11102,0.15557,0.035175,-0.2306,0.058036,0.17437,-0.089749,-0.068695,0.14307,-0.069453,-0.044074,0.12269,-0.19105,0.34619,0.19687,-0.31681,1.1748,-0.41629,-2.1545,1.2183,0.44407,-1.7121,1.2823,0.18804,-0.90618
1.469,0.48708,-0.49485,-3.2057,0.49766,-0.49283,2.3385,0.9495,-2.0716,0.97384,-0.35852,0.65578,-1.0826,0.19372,0.27929,0.14618,-0.11315,0.051942,-0.18787,0.34794,-0.096336,-0.37479,0.29465,-0.13532,0.1647,-0.074002,-0.10641,0.24575,-0.18539,0.016174,0.23515,-0.35749,0.73932,-0.57996,0.44336,0.073007,-0.53315,1.0553,-0.97156,0.16942,0.15181,-0.2574,0.34482,-0.69757,0.64011,-0.26625,-0.28677,0.392,-0.57056,0.59351,-0.23525,-0.37074,0.77889,-0.52465,-0.00206,0.2986,-0.47122,0.58737,-0.38915,0.29648,-0.41175,0.23071,0.084245,-0.27639,0.58958,-0.74623,0.20152,0.18341,0.054386,-0.13183,0.43876,-1.1614,1.5123,-0.32315,-0.87802,0.35274,-0.24185,0.81174,-1.0205,0.42467,0.58341,-1.0355,0.7109,-0.35953,0.71396,-0.80594,-0.011953,0.7766,-0.66377,0.46012,-0.33797,-0.12193,0.55712,-0.43321,0.015166,0.46354
-1.2985,-0.78814,-0.27773,0.31117,-0.2639,-0.54204,0.24301,0.5182,0.54541,-0.19726,-0.67375,0.23409,0.5238,-0.26398,-0.3453,-0.10862,0.16722,0.34406,-0.18672,-0.030314,0.3298,-0.36619,-0.034466,0.40471,-0.49555,0.037712,0.65097,-0.46893,-0.24351,0.43434,-0.26107,-0.11572,0.33542,-0.15771,-0.12801,0.23464,0.013493,-0.14524,0.098206,0.26561,-0.11567,-0.3018,0.44964,0.3595,-0.68448,-0.10245,0.63362,-0.28579,-0.33929,0.31933,-0.057481,-0.13899,0.11251,-0.11611,-0.051203,0.11191,-0.058568,-0.064513,0.053808,-0.0090512,-0.092962,0.034471,0.080997,-0.037519,-0.0075964,-0.016023,-0.019443,0.081144,-0.016855,0.0136,0.12526,-0.17075,-0.1329,0.36223,0.1659,-0.34617,-0.10881,0.26273,-0.012771,-0.18838,0.094091,0.035191,-0.15158,-0.047984,-0.07563,0.018953,0.20423,0.070707,0.038309,-0.12614,-0.24992,0.3741,0.22331,-0.79594,-0.32641,0.14311
-6.2456,-2.1135,2.0186,-2.1885,1.7032,1.9769,-2.4897,0.48525,0.53005,-0.91175,0.2579,0.44851,-0.76715,1.3356,-1.6123,1.827,-1.1897,0.086072,0.26782,-0.29908,0.21082,0.19685,-0.55285,0.05978,1.2041,-2.0082,1.3483,-0.041467,-0.62808,1.6498,-1.7559,0.082329,2.4943,-2.6112,1.1887,0.18854,-0.87434,0.90098,-1.2209,1.3139,-1.3462,0.83158,-0.63475,0.31586,0.18794,-0.67267,0.52946,0.33839,-0.75725,0.019096,0.90077,-0.63183,-0.026454,0.21313,-0.51998,0.76277,-0.50665,-0.064003,0.15382,0.667,-1.566,1.367,-0.10966,-1.2679,1.7075,-1.2002,0.5892,-0.14263,-0.096076,0.37145,-0.68685,0.63605,-0.098252,-0.062659,0.22599,-0.55629,0.1626,0.17496,-0.47855,0.24723,0.58359,-0.83664,0.29376,0.57091,-0.84597,0.49874,-0.045492,0.15218,-0.81451,0.91506,0.027743,-0.83787,0.57819,0.22542,0.034606,-0.15621
-4.7367,-1.585,1.5667,-3.1472,1.2452,2.8014,-1.6243,-0.65976,0.63034,0.16414,-2.0057,1.9466,0.20674,-1.4007,1.6788,-1.1447,0.67346,-0.26196,-0.15287,0.58172,-0.42665,-0.076521,0.077038,0.18606,-0.43592,0.35171,0.011749,0.010465,-0.13952,-0.038651,0.25793,0.29339,-0.43004,0.11263,0.41037,-0.16887,-0.10858,0.40384,-0.39072,-0.15404,0.57871,-1.0774,0.75265,-0.2512,0.075537,-0.37596,0.11903,0.24057,-0.39286,0.45224,-0.29279,0.084501,0.04705,-0.19959,0.34582,-0.34358,-0.0029071,0.61444,-0.81301,0.29426,0.31035,-0.40991,0.32593,-0.3409,0.10067,0.28713,-0.3558,0.089176,0.17814,-0.017524,-0.39883,0.5479,-0.11741,0.044833,0.14226,-0.54432,-0.11664,0.57244,-0.42752,-0.33667,1.0914,-0.78641,-0.18422,0.87817,-0.45255,-0.15768,-0.069594,0.50779,-0.20999,-0.40444,0.60464,-0.21417,-0.21167,0.56692,-0.14979,-0.86649
-0.4886,0.041862,0.57232,0.10502,-0.54709,-0.50575,-0.15186,-0.0081502,-0.10553,-0.11797,0.15791,0.39123,0.21555,-0.13026,-0.15812,0.10968,0.19164,-0.083409,-0.2263,0.04841,0.14355,-0.14751,-0.085716,0.23956,0.037648,-0.14931,0.081929,-0.0083914,-0.077752,0.14584,-0.15005,-0.28471,0.3309,0.19541,-0.436,0.026565,0.42267,-0.17782,-0.25884,0.30422,0.23624,-0.18132,-0.11252,0.17658,0.12368,-0.13748,-0.060117,0.25683,0.1441,-0.27636,-0.25844,0.16526,0.23932,-0.16418,-0.24109,0.15107,0.10131,-0.23374,0.0078515,0.13581,-0.22718,-0.00065203,0.37724,-0.092149,-0.32987,0.091407,0.12876,-0.039522,0.058633,-0.017416,-0.12343,0.066567,0.14608,-0.050744,-0.12159,0.0086104,0.020106,-0.03097,0.11955,0.1436,-0.141,-0.15404,0.080184,-0.022327,-0.1691,0.055867,0.22064,0.035832,-0.14888,-0.097578,0.048191,0.12751,0.092556,-0.12609,-0.1779,-0.22971
-1.8699,-1.4721,-1.0743,-2.7249,6.0687,-3.1021,-0.27602,2.2931,-3.697,2.367,-0.52139,0.52735,-0.10169,-0.72763,1.4072,-1.017,0.25347,0.44665,-1.5209,1.9948,-0.89427,-0.50423,1.1775,-0.8762,0.44353,-0.094657,0.26846,0.14129,-0.22233,0.39704,-0.67711,0.20805,0.78559,-1.6482,1.5166,-1.2189,0.32558,0.14263,-0.25317,0.51101,-1.018,1.6306,-1.9003,1.5597,-1.0555,0.61527,-0.0049064,-0.92722,1.7564,-1.7764,1.2084,-1.0254,1.052,-0.59209,-0.14831,0.45049,-0.50639,0.92195,-1.0166,0.41229,0.041969,0.47536,-1.2292,0.98977,-0.17796,-0.073997,-0.094932,-0.094909,0.42345,-0.17623,-0.28739,0.14942,0.28542,-0.048802,-0.23279,-0.6844,2.2953,-2.1362,0.82474,-0.4957,0.10732,0.12735,-0.50156,0.81621,-0.66314,0.59143,0.28327,-1.6616,1.8617,-0.38785,-1.2281,1.7945,-1.4515,0.87581,-0.033854,-0.94352
-3.4265,-0.72972,1.967,-2.0689,1.0419,-0.68046,-0.30749,3.2688,-3.6078,0.65012,1.1275,-1.0397,1.1524,-0.91862,0.38123,-0.24447,-0.22029,0.41333,0.28217,-0.55031,-0.011012,0.53194,-0.79215,1.1441,-0.40313,-0.65283,1.065,-0.96218,1.6181,-2.1982,1.9633,-1.106,-0.16905,1.3601,-2.0109,1.516,-0.85566,0.0089984,0.81031,-1.3899,1.3387,-0.64186,-0.088163,-0.25889,0.79005,-0.16729,-0.52594,0.19058,0.49263,-0.35451,-0.21472,0.62417,-0.99824,0.73784,0.10342,-0.69837,0.75106,-0.51161,0.42575,-0.23834,-0.87771,1.8626,-0.74637,-0.80739,1.1553,-0.37305,-0.34562,-0.13589,0.34743,-0.47967,0.81694,-1.148,1.3054,-0.6056,-0.30292,0.50374,-0.37883,0.46474,-0.15912,-0.42263,0.19064,0.88106,-1.5303,1.8497,-2.1873,1.0735,2.2601,-3.9551,4.1857,-1.0491,-3.9516,3.8164,-3.4676,1.0622,1.7906,2.519
0.23661,0.20314,0.16968,0.57908,-0.26098,-0.92499,0.22377,0.90807,-0.036301,-0.49933,-0.08931,0.27069,0.54847,-0.21539,-1.2848,0.14632,1.6428,-0.41959,-1.6512,0.79257,1.2634,-1.0344,-0.65651,0.94291,0.0044868,-0.63771,0.44032,0.36355,-0.43058,-0.22381,-0.017295,0.1905,0.63136,-0.064469,-0.7658,0.14978,0.51787,-0.44664,-0.21172,0.68535,-0.036232,-0.68772,0.34049,0.67682,-0.53196,-0.81939,0.35107,0.87833,-0.005685,-0.7596,-0.26432,0.48834,0.20648,-0.37017,-0.0010631,0.43095,-0.18459,-0.48337,0.27639,0.34796,-0.29654,-0.043232,0.25131,-0.3122,-0.21415,0.48614,0.080579,-0.50325,0.10927,0.53012,-0.02422,-0.40754,-0.28718,0.084775,0.44159,0.027777,-0.51736,0.14394,0.6475,-0.26869,-0.54015,0.29379,-0.00065218,-0.56027,0.33801,0.63731,-0.34908,-0.25844,0.42472,-0.12262,-0.51305,0.36625,0.71154,-0.45939,-0.72486,-0.99034
0.43189,0.27254,0.1132,-1.3688,-0.45983,0.49694,-0.23206,0.011582,0.62437,-0.034241,-0.0871,0.33746,-0.18165,-0.27676,0.29838,0.22168,0.00065807,-0.068925,-0.37822,-0.17025,0.41367,0.21522,-0.28964,-0.088872,0.25864,0.097814,-0.26978,-0.27225,0.15623,0.35062,-0.044687,-0.37316,-0.10629,0.27555,0.078655,-0.22961,0.1455,0.36292,-0.27434,-0.3007,0.31301,0.021358,-0.16655,0.39081,0.035142,-0.40221,0.29073,0.20009,-0.45746,0.15987,0.43408,-0.40236,-0.3331,0.31863,0.23068,-0.047809,-0.32213,-0.35625,0.33977,0.46009,-0.33829,-0.25855,0.27799,-0.054503,-0.1481,0.24821,-0.023042,-0.28035,0.15262,0.2471,-0.15702,-0.17091,0.097566,0.091184,-0.072977,-0.087265,0.044581,0.12103,0.11381,0.052277,-0.17946,-0.37898,0.01271,0.52034,0.027144,-0.58743,0.015425,0.52932,0.010038,-0.24324,-0.09852,-0.071774,0.2794,0.071017,-0.45255,-0.97613
0.0069659,0.054352,0.10174,-0.0031082,-0.22128,-0.34479,-0.26328,-0.046106,0.10276,0.078968,-0.025902,-0.090401,-0.045985,0.05157,0.13137,0.16617,0.12478,0.031114,-0.078975,-0.11874,-0.035648,0.085839,0.13718,0.045075,-0.089208,-0.11411,-0.025232,0.085458,0.0979,0.019494,-0.026513,-0.040556,-0.039488,-0.053779,-0.026497,0.081465,0.13276,0.027453,-0.19372,-0.24479,-0.013703,0.27832,0.29399,-0.03872,-0.33116,-0.27008,0.069108,0.29573,0.17813,-0.07032,-0.1636,-0.044857,0.060857,0.009752,-0.068539,-0.030773,0.10394,0.13879,0.014122,-0.1162,-0.10253,0.045483,0.14247,0.097366,-0.01826,-0.089056,-0.060244,-0.0044461,0.042647,0.072854,0.074518,0.043044,-0.046431,-0.11743,-0.10726,-0.025759,0.065635,0.071657,0.036771,0.012831,0.0053485,-0.020113,-0.10373,-0.12843,-0.035015,0.11979,0.18459,0.052091,-0.12641,-0.18259,-0.062948,0.092886,0.10972,0.01261,-0.048901,-0.11041
0.84241,0.18209,-0.47822,-1.3783,0.61874,-0.27674,0.19514,1.02,-0.25142,-0.56122,0.20775,0.28738,0.0044232,-0.34702,-0.32376,0.20729,0.23627,-0.097632,0.19028,-0.17919,-0.019319,0.33193,-0.53734,0.3562,0.39591,-0.98846,0.33995,0.48065,-0.49717,0.15076,0.026143,-0.079457,0.14229,-0.10066,0.13519,0.17965,-0.2097,0.023547,0.3043,-0.11985,-0.091154,0.096752,-0.044137,0.28497,-0.10169,-0.3068,0.19283,-0.14922,-0.071352,0.31281,-0.22148,-0.17731,0.34277,-0.21623,-0.23249,0.42512,-0.36603,-0.032983,0.45917,-0.59419,0.35627,0.13557,-0.46629,0.65195,-0.58985,-0.051155,0.8481,-0.82207,0.28279,0.30171,-0.53381,0.5988,-0.26067,-0.34734,0.44145,-0.31235,-0.089588,0.18337,-0.16463,0.075144,0.075086,-0.15013,0.23858,0.10832,-0.44478,0.22485,0.048628,-0.15231,0.39088,-0.37213,-0.11973,0.40819,-0.53014,0.68337,-0.17985,-1.0431
0.34402,-0.98415,-2.3123,-0.93224,1.7277,2.4805,-1.6932,-0.067962,0.17032,-0.47246,-0.26813,-0.65312,1.6378,-1.1242,0.83837,-0.23817,-0.44398,1.1761,-1.3069,0.91637,-0.23909,-0.5686,1.0157,-0.69382,0.28099,-0.58328,0.73334,0.01936,-0.94505,1.5138,-1.2516,0.50982,0.21144,-0.29258,0.69529,-0.49143,0.055001,0.064761,0.091272,-0.32479,0.22181,-0.14911,-0.036735,-0.068473,-0.22235,0.39276,-0.36716,0.031036,0.30019,-0.32454,0.16481,0.0082848,-0.16369,0.21809,0.094312,-0.46574,0.35762,0.066255,-0.48961,0.58991,-0.24336,-0.36114,0.57121,-0.28068,-0.018703,0.11365,-0.31951,0.49242,-0.12215,-0.40308,0.71452,-0.58349,0.38232,-0.019318,-0.11286,-0.098975,-0.45291,0.57991,-0.17284,-0.048013,0.10052,-0.015709,0.13729,-0.18943,0.20439,-0.27419,0.24294,-0.13705,0.035221,0.23634,-0.42144,0.34379,-0.19017,0.26862,0.034226,-0.20016
-6.8166,-1.7862,3.2442,-3.5789,0.96667,2.844,-2.1963,0.13229,0.55829,-0.51005,-1.0482,1.8026,-0.922,0.3789,0.055345,-0.13648,0.040571,0.070466,-0.090322,0.18763,-0.25972,-0.013646,0.39781,-0.47555,0.1722,0.13599,-0.26093,0.25611,-0.017382,-0.095339,0.27656,-0.31097,0.68369,-0.61648,0.39832,0.25563,-0.71778,0.74907,-0.58989,0.14329,-0.006167,-0.1073,0.081855,-0.37318,0.40238,-0.38197,0.29808,-0.16544,-0.056152,0.3732,-0.3723,0.10934,-0.029625,0.2468,-0.44124,0.32736,-0.045707,-0.13268,-0.088207,0.16918,0.20162,-0.27286,-0.14432,0.22572,0.18947,-0.42312,0.20486,0.20751,-0.58536,0.57353,-0.13617,-0.0025675,0.20337,-0.10142,-0.22447,-0.0071332,-0.09481,0.041313,0.15275,-0.19353,0.37002,-0.30144,-0.080394,0.45208,-0.49486,0.41138,-0.33329,0.18926,0.099455,-0.24257,0.07836,0.24086,-0.52097,0.67978,0.0065332,-0.66671
-5.1865,-1.1573,2.872,-1.6114,-1.4315,1.8105,-0.64739,0.85587,-0.19129,-0.39389,0.58182,-0.66114,0.74384,-0.37832,-0.034603,-0.20664,0.52751,-0.22846,-0.079685,0.069772,-0.071542,0.1237,-0.13146,0.50442,-0.50361,0.63931,-0.086399,-0.64644,1.0353,-0.55052,0.1442,-0.50566,0.53902,-0.32235,0.12334,-0.54737,0.50382,-0.018099,-0.54825,0.60962,-0.31397,0.031558,0.076006,-0.1796,0.16332,0.054036,-0.022697,-0.22817,0.3364,-0.3934,0.53772,-0.49871,0.049144,0.39228,-0.46038,0.38625,-0.2317,-0.087485,0.31292,-0.16742,-0.21319,0.23818,0.21002,-0.50459,0.50428,-0.55726,0.622,-0.50693,0.59423,-0.42632,0.17606,-0.15411,-0.089307,0.12364,-0.44313,0.5139,-0.18884,0.27697,-0.66398,0.758,-0.27244,0.15202,-0.52296,0.51238,-0.12585,0.087959,-0.26356,0.31504,-0.090354,-0.37854,0.46995,-0.097279,-0.12793,0.41023,-0.2053,-0.82083
-5.7869,-1.4841,2.8186,-2.0274,0.36789,-0.19411,-0.29287,1.4307,-1.1787,1.063,-1.0658,0.62297,0.16908,-0.72238,1.0867,-1.1492,0.382,0.50245,-0.79709,0.42762,0.084354,0.010898,0.062719,-0.3252,0.22977,0.58952,-0.27334,-0.20582,0.43982,-0.54032,0.55984,-0.10706,-0.29546,-0.11503,0.34356,-0.202,-0.3818,0.73449,-0.98407,0.5808,0.2999,-1.2522,1.4456,-1.1543,0.75439,-0.11361,-0.48982,0.80449,-0.74363,0.29266,0.3801,-0.6065,0.056857,0.35757,-0.25473,0.54545,-0.82472,0.099695,0.47463,-0.12138,-0.19345,0.028058,0.24135,0.11304,0.010883,-0.33452,0.21623,-0.34085,-0.3984,0.90731,-0.55032,-0.39206,1.075,-0.83314,0.4485,0.37868,-0.69653,0.016534,0.29018,0.39969,-0.88572,0.3598,0.17236,-0.11432,0.5359,-1.6346,2.6441,-2.0942,2.9963,-0.7876,-4.515,3.4776,-3.1152,2.2171,1.4438,0.67054
4.3101,-0.23429,-4.7787,3.6818,0.16628,0.35826,-0.65188,0.61341,-0.29799,-0.027603,0.44578,-0.573,0.49352,-0.020747,-0.017831,0.62632,-0.34715,0.68532,-0.49027,-0.21174,0.34083,-0.6936,0.12753,-0.23576,-0.039952,0.15073,-0.17344,0.23331,-0.020606,-0.1796,0.17456,-0.09877,0.40601,-0.8457,0.57616,0.18507,-0.7445,0.81175,-0.4927,0.03931,0.41912,-0.61971,0.55949,-0.14682,-0.4174,0.80018,-0.79602,0.55844,-0.07779,-0.41372,0.66446,-0.74728,0.58633,-0.26577,-0.073053,0.15136,-0.16338,0.41066,-0.53154,0.36171,0.018813,-0.31697,0.43235,-0.3348,-0.011209,0.49926,-0.81216,0.72515,-0.47373,0.17896,0.1357,-0.38749,0.44882,-0.33671,0.091362,0.067888,-0.0053614,0.10973,-0.27473,0.38433,0.11409,-0.079634,-0.17222,-1.0858,0.84694,0.29889,-0.66464,0.78334,-0.15065,-0.57829,0.82531,-0.74038,0.77335,-0.65693,0.54886,1.7547
5.5987,1.5904,-2.4179,-1.5714,-0.56131,1.6515,1.8092,-1.742,0.55067,-0.57875,-0.26368,-0.061757,0.22297,0.43255,-0.24117,0.20131,-0.34362,0.54334,-0.091116,-0.50911,0.2892,0.18304,-0.019682,-0.42856,0.28605,0.44802,-0.73012,-0.020745,1.0344,-1.018,0.34543,0.50321,-0.22526,-0.19832,0.25227,0.58174,-0.65097,0.026606,0.17722,-0.24535,0.042999,-0.36027,0.35829,-0.34661,0.0069992,0.03254,-0.091154,0.483,-0.65749,0.18484,0.43976,-0.41724,0.19668,-0.084515,0.076169,-0.23299,0.30212,-0.15635,-0.078665,0.063116,-0.057493,0.45169,-0.77856,0.50436,0.07307,-0.64438,0.94885,-0.79142,0.49967,-0.12352,-0.19795,0.33091,-0.15784,-0.072404,0.5534,-0.46813,-0.13059,-0.015734,-0.18616,0.49852,-0.56966,0.30126,0.17983,-0.27901,0.40085,-0.46074,0.40998,-0.23978,0.013355,0.22982,-0.22983,0.12342,-0.18965,0.36917,-0.097852,-0.56487
0.71773,-0.15325,-1.0242,-1.1888,-1.1766,0.50523,2.5566,0.049244,-1.5759,0.71198,-0.5251,0.48508,-0.092052,-0.88917,1.1989,-0.4588,-0.25151,0.99869,-1.5524,1.0725,0.78372,-1.9392,0.76271,0.75149,-0.75962,0.19837,0.075745,-0.44767,1.0299,-0.60114,-0.36689,0.76887,0.19691,-0.91749,0.60801,0.53625,-0.4997,-0.28312,-0.070941,0.48567,-0.5321,0.59767,-0.67861,0.11388,0.55969,-1.1138,0.60236,0.20771,-0.45129,0.27327,-0.082263,-0.066613,0.072725,0.41468,-0.55581,-0.030621,0.28731,0.095763,-0.1566,0.043774,-0.29388,0.14787,0.54331,-0.62247,-0.23872,0.77965,-0.38322,-0.13283,0.46617,-0.93948,0.98224,0.13472,-1.1506,1.5906,-1.2384,-0.15388,1.1994,-1.6834,0.67529,1.0477,-1.3342,-0.15792,1.6305,-1.1549,-0.13342,0.46513,-0.17163,0.29282,-0.30387,0.052618,-0.15877,0.53559,-0.5273,0.069442,0.39647,0.7235
2.4507,0.24252,-1.9656,-0.25577,-1.2504,-0.49756,3.2975,-0.19802,-1.7443,1.2701,-0.64773,-0.66275,1.1166,-0.73536,-0.13235,0.99879,-0.28514,-1.0456,1.9182,-1.4891,-0.35523,1.8227,-1.4843,0.11488,0.79532,-0.54365,-0.40971,1.0123,-0.72583,-0.037666,0.26597,1.1025,-1.457,0.29646,0.88317,-0.98579,0.94141,-0.82044,0.22715,1.0829,-1.4079,-0.32649,0.89395,0.39251,-1.4709,0.95646,-0.21626,-0.30418,0.29494,-0.21893,0.37653,-0.8048,0.94084,0.061272,-0.99989,0.63433,0.22036,-0.74305,1.2699,-1.9166,1.7638,-0.40952,-0.98043,1.4349,-1.1679,0.6507,-0.47974,0.95011,-1.0457,-0.025178,1.2355,-1.6212,1.2788,0.067858,-0.81647,0.58024,-0.54988,0.0059475,0.30547,-0.27858,-0.16594,0.78252,-0.48492,0.15364,-0.26024,0.24373,0.17229,-0.52359,0.24092,0.21898,-0.031669,-0.071467,-0.23994,0.27267,0.078436,-0.1158
-3.2975,0.056236,3.4099,-3.489,-3.2791,8.7324,-5.4621,-0.05817,2.5807,-2.9132,1.9593,-2.691,5.0399,-5.7672,3.3261,1.2646,-3.2797,2.9362,-3.6541,4.4335,-4.0021,1.1259,3.775,-4.8341,3.0144,-2.5691,2.8217,-1.9249,3.05,-5.6304,5.4094,-0.98991,-4.0639,3.6315,0.8229,-3.6216,0.84332,3.3665,-4.2541,1.3313,2.0886,-0.39665,-3.806,3.697,-2.08,2.4526,-2.2576,1.824,-1.7306,-0.036371,2.4803,-3.7574,4.4386,-4.772,3.4916,-0.84258,-0.038016,0.09532,-1.7013,2.608,-2.216,1.8171,-1.5058,1.2602,0.30834,-2.5237,4.323,-5.0246,3.5706,-2.6135,2.0755,0.27979,-3.2738,3.6928,-2.2485,1.6024,-1.1719,-0.017909,1.4996,-2.3175,3.0406,-3.7604,3.7989,-3.2153,1.4694,2.0592,-4.9004,4.0591,1.0024,-1.0936,-1.0109,-1.4038,-0.3406,-0.60115,2.4371,5.4754
-0.56188,-0.44254,-0.3232,1.2153,-1.6966,-0.31337,2.7098,-1.8235,-0.51742,1.1882,-0.33206,0.34848,-1.1558,1.3256,-0.89833,0.11201,0.80765,-0.63203,-0.59942,1.1372,-0.56596,0.091853,-0.13322,0.4604,0.18005,-1.0442,1.7954,-1.8742,1.6449,-1.0157,0.94876,-0.6362,-1.0421,1.7814,-1.0119,-0.05051,0.077525,0.11706,-0.024331,-0.48386,0.28739,-0.6707,2.1153,-2.3015,0.72947,0.59917,-0.75589,0.52035,0.16521,-0.64377,0.17859,0.2753,-0.11505,0.25014,-1.3997,2.6157,-2.5717,0.99844,0.55353,-0.54283,-0.45193,0.81939,0.19993,-0.93184,0.91097,-0.70691,0.8895,-0.83831,-0.43786,1.0104,-1.1037,1.0305,-1.0367,1.113,-0.072388,-0.9392,0.96733,-0.59122,0.1473,0.29841,-0.079531,-0.76142,1.4341,-0.94438,-0.65925,1.848,-2.0313,2.9469,-1.9176,0.78622,0.91783,-4.0727,0.77275,-0.098813,2.0169,4.1326
0.59247,0.25306,-0.08634,-1.0216,0.32914,0.34245,-0.84509,-0.11453,0.33033,0.0058684,0.5219,0.06698,-0.61087,0.18227,0.35351,-0.097403,0.055935,-0.15885,-0.22223,0.29943,0.063303,-0.32466,0.17292,0.3551,-0.2824,-0.31764,0.30239,0.11999,-0.30418,0.095316,0.10411,-0.26377,0.18643,0.30543,-0.32705,-0.14815,0.40173,0.085697,-0.23526,0.12243,0.17742,-0.28455,-0.12391,0.45941,0.18041,-0.40651,-0.078042,0.31821,-0.1642,-0.33956,0.23912,0.21536,-0.25532,-0.1331,0.13277,0.12977,-0.045154,-0.24767,0.054449,0.27004,-0.19524,-0.13798,0.27734,-0.064566,-0.18397,0.10778,-0.076194,0.028869,0.2733,-0.14379,-0.15453,0.11303,-0.10237,0.13565,0.13469,-0.46227,0.050142,0.42208,-0.26626,0.027049,0.22663,-0.39208,0.17912,0.27598,-0.69152,0.01847,0.66474,-0.27143,-0.19276,0.36301,-0.13747,-0.16444,0.30858,-0.12384,-0.35272,-0.5816
2.0411,-0.079596,-2.2002,0.98801,-2.5758,2.3571,1.731,-2.9755,1.7292,-0.30319,-1.0039,0.76116,0.23634,-0.35395,0.29893,-0.15851,0.043913,-0.017508,-0.0056044,0.079874,-0.20108,0.085443,0.15177,-0.098696,-0.18361,0.236,0.019664,-0.31263,0.4403,-0.24998,0.23715,0.088444,-0.19391,0.35238,-0.092884,0.047169,0.24099,-0.31934,-0.066156,0.25352,-0.29584,-0.10114,0.11192,-0.35251,0.52456,-0.56794,0.19281,0.23512,-0.38728,0.28791,-0.17611,0.26731,-0.26031,-0.066013,0.48356,-0.45361,0.084883,0.087801,0.010916,-0.19035,0.17082,0.21858,-0.41661,0.075673,0.22028,-0.0015426,-0.12671,-0.12614,0.22386,0.041813,-0.24081,0.07886,0.15995,0.19567,-0.35437,0.091377,0.055285,-0.48563,0.28332,0.051959,-0.037108,-0.013289,-0.08932,0.38192,-0.28621,-0.0030377,-0.082955,0.42068,-0.29294,-0.009022,0.076174,-0.00604,-0.08349,0.2189,-0.093529,-0.40596
-1.4624,-0.17736,1.1076,-1.8508,-0.38291,0.41144,0.22635,0.51585,0.023615,0.03987,0.10061,-0.216,0.17208,-0.052901,0.14679,-0.18002,0.22651,-0.35951,0.56406,-0.68056,0.53022,-0.34233,0.054149,0.50635,-0.62385,0.4171,0.010373,-0.051943,0.17403,0.05748,-0.10227,0.0821,0.14273,-0.50485,0.28053,-0.014376,-0.1716,-0.09957,0.20459,-0.14734,-0.12804,0.19442,-0.27632,0.24077,-0.04534,-0.050697,-0.039693,0.16535,-0.048037,-0.12675,0.27973,-0.20061,0.17569,-0.30833,0.34998,0.046981,-0.92074,1.0042,-0.41508,0.18925,-0.42988,0.22904,-0.2311,0.37924,0.051386,-0.3315,0.34528,-0.28244,0.27856,-0.13537,-0.082938,0.15723,-0.050154,0.082568,-0.23521,0.29366,-0.24825,0.2057,-0.21339,0.10932,0.078207,0.024941,-0.17768,-0.020348,0.25135,-0.073661,-0.16353,0.20193,-0.062135,0.15223,-0.29242,0.17696,-0.2059,0.50112,0.034338,-0.43245
3.4166,-0.51379,-4.4441,2.7604,-1.9252,0.28,3.1839,-1.6332,-0.72818,0.45621,0.79484,-1.7256,0.28655,1.2764,-0.53301,-0.37308,0.38173,0.34499,-0.94882,0.87388,-0.41494,-0.22074,0.65068,-0.62418,0.65363,-0.50579,0.010234,-0.048122,0.43464,0.0076822,-0.77348,0.94092,-0.06878,-0.55356,0.78988,0.061768,-0.65382,0.16592,0.77385,-0.97379,0.046865,0.91097,-1.4124,0.96807,-0.3428,-0.14867,0.03062,-0.24933,0.71263,-0.49789,-0.40774,0.26912,0.88674,-0.82464,-0.32457,1.1113,-1.4162,1.9689,-2.2783,1.2899,-0.040894,-0.36506,0.29172,-0.58292,1.3189,-1.7404,1.5315,-0.8069,-0.35233,1.0797,-1.0297,0.66439,0.25238,-0.34319,-0.010063,-0.35537,0.056252,0.24684,-0.14616,-0.14741,0.51186,-0.50803,0.078451,0.42914,-0.25861,-0.30096,0.82309,-0.98668,0.20843,0.99713,-1.218,0.57107,0.10275,-0.4114,0.27666,0.96473
5.8684,1.8095,-2.2495,-1.8985,1.0027,-1.2452,2.6121,0.1775,-1.46,0.33364,-0.046795,-0.033997,-0.63818,1.2492,-0.50649,-0.21339,0.47598,-0.27413,0.20961,-0.3371,0.34522,-0.18871,-0.12162,0.40654,-0.57864,0.43879,-0.30222,0.14041,0.31482,-0.58184,0.21091,0.5579,-0.30681,0.036668,0.28256,0.14267,-0.40151,0.26348,0.27902,-0.65711,0.29792,-0.31686,0.20508,-0.21014,-0.26233,0.49382,-0.13487,-0.60476,0.55389,0.44812,-0.75367,0.1679,0.26435,-0.35575,0.44398,-0.2258,-0.38624,0.6613,-0.37705,-0.098072,0.1376,0.02567,0.015834,-0.23929,0.27774,-0.078315,-0.14914,0.35403,-0.063753,-0.40499,0.46196,-0.15449,0.10013,-0.00050861,0.049974,-0.071268,-0.52685,0.45096,-0.061715,-0.22643,0.16434,0.037758,0.22996,-0.51762,0.68497,-0.54874,0.18658,0.10598,-0.27345,0.55151,-0.87085,0.84202,-0.25162,-0.20616,0.35192,0.91001
0.75381,0.77259,0.79137,-4.622,0.3783,0.3189,1.6581,1.2096,-1.7189,0.46533,-0.68623,1.8426,-1.4827,-0.48485,2.0082,-2.1983,1.373,-0.36327,-0.25399,0.24371,-0.10484,0.37253,-0.82503,0.87818,-0.35624,-0.26321,0.4909,-0.25764,-0.068328,0.43981,-0.33852,-0.061475,0.95801,-0.90329,0.002921,0.97871,-0.80324,0.14358,0.22384,-0.46381,0.19996,0.011196,-0.2812,0.31896,-0.61663,0.59387,-0.20783,-0.48688,0.6811,-0.30792,-0.094939,0.30485,-0.32266,0.16276,0.44118,-0.79141,0.49892,0.098275,-0.82602,1.4153,-1.2306,0.33345,0.32217,-0.55672,0.4703,-0.43719,0.79378,-1.1509,0.85029,-0.10411,-0.30416,0.24517,0.40883,-0.080077,-0.44285,-0.25697,0.35215,-0.18401,-0.10174,0.4997,-0.63482,0.24786,0.314,-0.16518,0.09528,-0.11257,-0.26608,0.46024,-0.043091,-0.26523,0.22877,0.0041715,-0.34859,0.30407,0.18938,0.074685
-0.55373,0.067726,0.68919,0.068572,-0.69621,-0.5753,0.020967,0.18842,-0.36067,-0.30511,0.75111,0.73935,-0.49434,-0.59373,0.33471,0.4577,-0.07906,-0.37885,-0.25352,0.14913,0.2286,-0.016017,0.049274,0.053136,-0.16963,0.0038105,0.19233,-0.11862,-0.20636,0.19175,0.169,-0.33982,-0.13818,0.41138,-0.092132,-0.43798,0.42436,0.39859,-0.50017,-0.050918,0.53511,-0.13732,-0.36845,0.23656,0.27745,-0.11322,-0.036978,0.10311,-0.17121,-0.053531,0.24801,-0.20537,-0.13517,0.48395,-0.24429,-0.62519,0.53634,0.37259,-0.6372,-0.022389,0.4375,-0.25749,-0.20228,0.32862,0.043809,-0.29407,0.020762,0.1942,-0.097081,-0.039041,0.19829,-0.13311,-0.21335,0.2246,0.092841,-0.16744,0.033393,-0.008478,-0.020073,0.18662,-0.046599,-0.095018,0.17322,-0.18983,-0.36965,0.24251,0.28502,-0.21089,-0.040778,0.23743,-0.1231,-0.23944,0.28884,0.16588,-0.31751,-0.80089
5.4988,1.0971,-3.3045,-1.8378,-0.81506,4.7325,-0.49094,-2.0563,1.0283,0.05103,-1.9583,1.7237,0.14346,0.40095,-2.8904,4.3256,-2.717,0.55836,1.0961,-2.1136,2.0304,-2.7659,3.3828,-2.1853,1.0036,-0.36175,0.40571,0.1342,-0.19473,0.17478,0.03104,0.020754,-0.48693,0.41069,-0.075106,-0.1712,-0.21852,0.0099278,0.48822,-0.84747,0.34286,0.53425,-0.86945,1.0532,-1.3353,0.47804,0.88036,-0.73353,-0.15813,0.38405,-0.22805,0.011119,-0.04621,0.21839,-0.12976,-0.063922,-0.1669,0.86931,-1.1588,0.67601,0.46587,-1.7373,2.16,-1.6732,0.85498,-0.1948,0.17156,-0.779,1.2655,-1.1988,0.88753,-0.39532,-0.013132,0.31869,-0.65292,1.359,-1.2029,0.68913,-0.4997,-0.22108,-0.46296,0.92816,-0.41214,0.39513,-0.69114,1.1453,-0.87225,-0.042479,0.96094,-1.0298,0.74768,-0.72199,0.095606,1.0989,-0.63098,-2.3608
3.3881,0.97516,-1.4378,0.95208,-0.13045,-1.7978,3.5156,-3.1285,0.74683,2.3907,-3.5834,2.4296,-0.35788,-1.4026,1.8022,-1.3735,0.82081,0.10968,-0.27579,-0.81633,1.3045,-0.74343,0.43427,0.20164,-2.2245,3.9959,-2.9577,0.2022,2.8169,-3.3982,2.1071,-1.1661,1.0116,-0.76504,-0.10933,0.81539,-1.3948,1.9058,-2.4302,1.3377,0.45899,-0.94613,0.59236,-0.70615,0.73355,0.11691,-0.83898,0.62198,-0.090682,-0.30718,0.2358,0.23962,-0.25376,-0.32938,0.49379,0.15733,-0.29016,0.53343,-1.4403,0.98117,-0.22993,0.25898,0.28288,-0.9753,1.2636,-0.63997,0.077235,-0.029967,-0.66123,0.46061,0.10913,-0.31893,0.67493,-0.73981,0.2216,0.65876,-0.82803,0.40473,0.093454,-0.34171,0.49108,-0.38585,-0.18176,0.63279,-0.56323,0.28498,-0.2687,0.76055,-1.0181,1.978,0.065221,-2.7729,1.299,-1.6237,0.12666,1.877
-2.0755,-0.28457,1.5064,-0.36467,-2.0268,0.16569,0.50566,-0.69604,0.69905,0.52642,-0.17209,0.23835,-0.24127,-0.040349,0.058053,-0.27918,0.19053,-0.10972,-0.027064,0.30502,-0.29257,0.20993,0.31193,-0.42297,0.18911,0.12123,-0.5295,0.2054,0.31545,-0.36014,0.12132,0.35857,-0.56718,-0.18564,0.90394,-0.072215,-0.91698,0.37264,0.79323,-0.43794,-0.38789,0.61735,0.030405,-0.6406,0.34593,0.51483,-0.48605,-0.40058,0.16112,0.2757,0.24143,-0.20871,-0.50289,0.11926,0.32839,-0.24754,0.021111,0.13593,-0.26388,0.33841,-0.16371,-0.56382,0.69057,0.13084,-0.29989,0.16805,-0.37494,0.44787,0.25173,-0.85163,0.51241,0.42586,-0.46291,0.1846,-0.23606,-0.32408,0.477,-0.19124,-0.55349,0.56853,0.21028,-0.57397,0.57677,0.085201,-0.85143,0.56786,0.25245,-0.67276,0.37245,0.25961,-0.49272,-0.056036,0.55732,0.01073,-0.30897,-0.62868
2.7913,-0.31238,-3.4161,0.70323,-0.56357,1.8736,1.6946,-2.4925,1.1142,-0.69234,0.29226,0.42687,-1.4769,1.4301,-0.4099,-0.15793,0.3097,-0.32514,0.65315,-1.141,0.96496,-0.24809,-0.072125,0.59351,-1.4046,1.1868,-0.3657,0.31329,-0.72422,1.0874,-0.96486,0.58869,0.37622,-0.75588,0.33216,0.68944,-0.91999,-0.065888,1.3435,-1.8429,0.93657,0.095957,-1.0025,1.1094,-0.013646,-1.4785,1.7376,-1.1523,0.48884,-0.10401,-0.41481,1.4064,-2.0748,1.4486,-0.43217,0.40624,-0.46527,-0.11148,0.46771,-0.328,0.43694,-0.37546,-0.70963,1.3488,-0.43317,-0.98118,1.3502,-0.57873,-0.15273,0.43485,-0.87402,1.4664,-0.61065,-0.81287,1.5487,-1.7335,0.70033,0.41971,-1.1024,1.2848,-1.0075,0.51707,-0.091481,-0.014223,0.50409,-0.8235,-0.13106,1.0928,-0.56966,0.16294,-0.20965,-0.81464,1.6954,-0.63068,-0.62646,-0.62224
-6.4993,-1.9336,2.6321,-3.1918,2.0138,1.7441,-2.2051,0.57378,-0.13107,-0.097648,-0.53762,1.2953,-0.76484,0.35458,-0.19745,0.2921,-0.088917,-0.20001,0.14052,-0.074659,0.24861,-0.33823,0.031249,0.20681,-0.14757,0.016551,-0.062613,0.29736,-0.44423,0.64134,-0.45563,0.33932,0.19817,-0.39305,0.73557,-0.35581,-0.28722,0.34226,-0.11105,-0.18895,-0.12786,0.172,-0.22087,-0.1124,0.16059,-0.03433,-0.12392,0.21586,-0.057631,-0.029104,0.032062,-0.13676,0.24154,-0.15391,0.037618,0.10824,-0.26686,0.34681,-0.48058,0.40663,0.007592,-0.26512,0.10081,-0.061275,0.32264,-0.4768,0.21344,0.18739,-0.22476,0.16582,-0.31495,0.46633,-0.15795,-0.08292,0.37285,-0.50796,-0.22423,0.40742,-0.060125,-0.25102,0.16953,0.086556,0.12522,-0.30451,0.23247,0.12282,-0.39263,0.30735,-0.15813,0.1066,-0.019166,0.051559,-0.25175,0.30275,0.1348,-0.03315
-0.32709,-0.30391,-0.28074,-2.8527,3.9982,-1.6639,0.85439,0.1249,-0.73474,1.0651,-1.3297,1.2078,-0.9651,0.76864,-0.16609,0.57361,0.034493,0.1432,0.30502,-0.74787,0.70956,-1.0489,0.34577,-0.33133,0.010201,-0.11368,0.29766,-0.33822,0.30887,-0.20697,0.058411,0.12391,-0.15883,0.018154,0.21775,-0.38524,0.30367,0.049581,-0.26766,0.2421,-0.13844,-0.045511,0.24695,-0.28443,0.20088,-0.03421,-0.10492,0.22195,-0.29836,0.1953,-0.084812,-0.015161,0.23053,-0.23926,-0.032677,0.26385,-0.24151,0.13661,0.0060039,-0.26559,0.28279,-0.0061586,-0.24821,0.52619,-0.81331,0.76411,-0.38448,-0.095148,0.4659,-0.56095,0.41661,-0.17001,-0.024607,0.22378,-0.27908,0.011265,0.30151,-0.41113,0.36554,-0.18179,-0.0068531,0.64399,-0.79376,0.25179,-0.27919,-0.20314,0.28871,0.27637,-0.25743,-0.018219,0.41018,-0.76923,1.0574,-0.84761,0.19897,1.2455
-0.83056,-0.43712,-0.043679,-0.095162,-0.61534,-0.16978,0.14521,-0.14466,0.46971,0.5367,-0.52172,0.040158,0.53468,-0.51501,-0.024416,0.4651,-0.73217,-0.15313,0.86313,-0.11151,-0.33709,0.12569,-0.15026,0.14471,0.33194,-0.27237,-0.22119,0.059961,-0.067352,0.12468,0.19218,-0.15603,-0.13622,0.12425,0.1316,-0.024006,-0.11803,0.041026,0.21562,0.0086208,-0.21313,0.0056802,0.2884,0.057115,-0.194,0.049575,0.011481,-0.17598,0.25493,0.13066,-0.49552,0.057947,0.44641,-0.31827,-0.28808,0.2962,0.087391,-0.15204,-0.067576,0.073151,0.19572,-0.14029,-0.3706,0.19385,0.46406,-0.19793,-0.47126,0.21926,0.39077,-0.27217,-0.1882,0.23696,-0.03646,-0.022938,0.11287,-0.20367,-0.016507,0.10645,-0.23066,0.19603,0.35678,-0.43181,-0.27091,0.43918,0.060229,-0.37518,0.11161,0.3389,-0.17354,-0.2189,0.19957,0.101,-0.022625,-0.0035883,-0.20851,-0.41343
1.5018,0.46791,-0.566,-2.7543,-0.14944,0.25652,3.244,-0.66891,-1.2397,-0.0818,0.014077,1.658,-3.7001,2.8801,-0.069934,-1.0276,0.96808,-0.59718,0.22807,0.34796,-0.93955,0.58586,0.35596,-0.65681,0.45571,-0.38688,0.18408,0.32342,-0.8047,1.0747,-1.0132,0.70089,0.32369,-1.102,1.5054,-0.4004,-0.92902,1.2628,-0.31434,-0.80306,0.85372,-0.31546,-0.33068,0.43542,-0.69629,0.74866,-0.52861,-0.28673,0.89896,-0.91609,0.35102,0.12455,-0.29127,0.59941,-0.38431,-0.042344,-0.22856,0.61872,-0.36873,-0.2242,0.69885,-1.0167,0.49937,0.76668,-1.2842,0.53936,0.32177,-0.64989,0.67366,-0.23931,-0.33493,0.41158,-0.13663,0.807,-1.2353,0.39438,0.14449,-0.57433,0.69645,-0.68458,0.84371,-0.69344,0.082885,0.34233,-0.012064,-0.025984,-0.48409,0.79064,-0.73895,0.91008,-0.72475,-0.59044,1.7384,-1.4699,0.27742,2.0248
0.89621,0.32929,-0.23763,-0.21017,0.50568,0.016228,-0.8869,0.062455,0.6839,-0.16376,-0.1152,0.38338,-0.32678,-0.41047,0.58712,0.40792,-0.60828,-0.46196,0.38152,0.30655,-0.19974,0.02193,0.18626,-0.18006,-0.094729,0.12977,-0.014087,0.14925,0.10623,-0.43508,-0.12917,0.65397,0.26216,-0.53784,-0.17062,0.482,0.026224,-0.42964,0.13219,0.25074,-0.31247,-0.017946,0.41679,-0.24349,-0.56885,0.31615,0.5592,-0.48034,-0.50417,0.61359,0.22574,-0.67034,0.15109,0.44744,-0.47522,-0.023408,0.55552,-0.36038,-0.39396,0.49729,0.077238,-0.50471,0.25105,0.67452,-0.24664,-0.65033,0.27497,0.52882,-0.34225,-0.37995,0.33139,0.22514,-0.27811,-0.15249,0.10272,-0.060959,-0.074635,0.17491,0.0098206,-0.17503,0.13922,0.089984,-0.172,0.16043,0.043645,-0.44222,0.061989,0.42158,-0.11765,0.017542,0.02249,-0.26498,0.042306,0.41048,-0.4182,-1.2469
-4.2628,-0.99247,2.2779,-1.2316,-1.2576,0.63946,0.45796,0.13672,0.027092,0.21169,-0.36446,0.29021,0.071411,-0.20248,0.10733,0.11387,-0.27326,-0.021244,0.43316,-0.34707,-0.12917,0.26557,-0.14711,0.26962,-0.0066447,0.013001,-0.17872,0.53662,0.001429,-0.40053,0.48539,-0.074427,-0.27546,0.067914,-0.21577,0.036014,0.21515,-0.28481,-0.22645,0.11054,0.46901,-0.68375,0.13992,0.2355,-0.095316,0.38629,-0.81668,0.43978,0.26472,-0.3528,0.044131,-0.057791,0.38448,-0.57189,0.52455,-0.16866,-0.61015,1.0193,-0.54326,0.0121,-0.049947,0.33307,-0.37752,0.10365,-0.007517,0.27332,-0.25196,-0.15018,0.38168,-0.24657,0.58547,-0.4507,-0.28702,0.26892,-0.20638,0.29811,-0.58056,0.37892,0.07383,-0.025761,-0.042173,-0.14809,0.65115,-0.89126,0.75826,-0.53666,0.30133,0.04281,-0.3968,0.62204,-0.661,0.47194,-0.16044,-0.20388,0.35334,0.91056
-0.65733,-1.0316,-1.4058,-1.3703,2.3445,2.3056,-2.8769,0.77413,0.37111,-1.9344,1.2494,-0.40387,0.63036,0.14382,-0.42983,0.23927,0.065583,-0.060999,-0.25335,0.37777,-0.26827,0.0088817,0.15159,-0.28905,0.61818,-0.55441,-0.021446,0.50533,-0.38076,0.1108,0.18449,-0.1419,0.37769,-0.066743,-0.13949,0.41814,-0.25476,-0.15955,0.12529,-0.062289,-0.0051608,-0.4645,0.36238,-0.091159,-0.23824,0.15487,0.25833,-0.19507,-0.30108,0.32772,0.14096,-0.30376,-0.064564,0.44307,-0.26577,-0.40201,0.60708,-0.34658,0.20802,-0.37389,0.65094,-0.78611,0.12039,0.82638,-0.98738,0.87308,-0.79609,0.2847,0.69027,-1.0639,0.83252,-0.35202,-0.80809,1.4474,-0.12946,-0.7606,0.85843,-1.1193,0.46263,0.51162,-1.5603,1.1777,-0.026878,0.92312,-1.8566,0.7518,0.56711,-0.68252,0.35479,-0.82626,1.7073,-0.77454,-1.3405,1.7959,-0.27317,-2.3422
2.209,1.2285,0.24799,-3.0913,1.1239,-1.254,-1.3806,3.9695,-0.60548,-1.679,1.4937,-0.78624,0.53843,0.35822,-1.8888,1.6427,0.16153,-0.97509,0.25793,0.4566,-0.37421,-0.20913,1.0712,-1.7462,1.0502,0.90238,-2.4343,2.6123,-1.5987,0.071777,1.1996,-1.129,0.74287,-0.2614,-0.18699,0.92304,-0.50931,-0.093269,-0.048704,0.1025,0.31872,-0.89148,0.54246,-0.099413,-0.24403,0.085486,-0.39344,0.7913,-0.76036,-0.044446,1.2685,-1.718,0.69135,1.0437,-1.6478,0.80068,-0.22566,0.65397,-1.0053,0.69553,-0.25586,0.16161,0.28459,-1.1705,1.3632,-0.84425,0.36604,0.3246,-1.1672,1.3361,-0.85897,0.35473,0.42153,-0.35466,-0.21083,-0.12471,0.29014,-0.4016,0.32961,-0.35817,0.14158,0.59694,-0.92428,0.83147,-0.14031,-0.37938,0.010499,0.2232,0.13196,-0.040864,-0.32686,0.48148,-0.4467,0.068048,0.54137,1.0147
3.4307,1.4546,-0.52158,-3.8978,1.8572,-1.3624,1.6234,2.1639,-2.1417,-0.31405,0.52205,0.58468,-1.952,1.4468,0.34683,-1.0542,1.2201,-0.93612,0.41777,-0.040681,-0.33362,0.43854,-0.30523,0.54626,-1.1082,0.51701,1.0927,-1.2644,0.1516,0.58386,-0.37345,0.33506,0.054818,-0.086837,0.34603,-0.69527,0.47262,0.67266,-1.402,0.60029,0.37231,-1.0563,0.95416,-0.44278,-0.53512,0.93194,-0.7082,0.32703,-0.44026,0.52397,-0.087076,-0.54907,1.2471,-1.4666,0.91856,-0.096402,-0.11343,-0.29354,0.55035,-0.1997,-0.72058,1.6155,-1.5362,0.24984,1.0647,-1.5646,1.3309,-0.62231,0.013597,0.23681,-0.28742,0.20009,0.14425,0.36242,-0.95684,0.92209,-0.42274,-0.90628,0.87557,-0.20986,0.35986,-0.78986,0.83639,-0.53412,0.58862,-0.62761,0.98421,-1.3995,0.36287,1.6856,-2.2312,1.0938,0.02116,-0.45319,0.32483,1.1028
3.9696,0.20259,-3.5644,1.0345,-1.3994,-1.3349,4.7499,-1.1167,-1.7572,1.3295,-0.040693,-0.00213,-1.2105,0.86462,0.69479,-0.95689,-0.12635,1.2709,-1.7071,1.4084,-0.15321,-1.1881,0.90719,0.094256,-0.25427,-0.80056,2.1849,-1.7969,-0.11634,1.1282,-0.29704,-0.64733,1.5696,-1.5357,1.2459,-0.14718,-1.5253,2.4275,-1.978,0.95112,-0.034184,-1.076,1.4287,-1.7777,1.5861,-0.59254,-0.76862,1.2355,-1.2885,1.3894,-0.83282,-0.36801,0.9903,-0.9461,1.5555,-1.6938,0.32068,0.48243,0.19008,-0.27359,-1.0751,2.13,-1.5549,0.24034,0.61844,-0.9763,1.0814,-1.8402,2.7625,-1.8706,0.0085624,0.64627,0.050656,0.18696,-0.59485,0.39453,-0.73329,-0.25919,1.2924,-0.78685,-0.44538,1.0831,-0.71977,0.38409,0.065011,0.057356,-0.57757,0.054653,0.81285,-0.5617,-0.21246,0.49574,-0.0064296,-0.67162,0.27434,1.2203
-1.6447,-0.86814,-0.091597,-0.22729,0.092903,-0.066051,0.56628,0.44439,-0.5234,-0.30556,0.67082,-0.011617,-0.36985,0.10927,-0.24642,-0.15291,0.51754,0.10802,-0.39548,0.08587,0.33101,-0.1687,-0.26434,0.18993,0.15126,-0.21111,-0.13476,0.098954,0.13013,0.051129,-0.076463,-0.12601,0.069333,0.13558,-0.10027,-0.038565,0.18086,0.03604,-0.070275,0.044658,0.066715,0.0053728,-0.018709,0.033002,0.082421,-0.0065638,-0.13901,-0.0089507,0.17953,-0.11915,-0.33417,0.12388,0.29942,-0.14374,-0.19071,0.13099,-0.026598,-0.18685,0.1761,0.090701,-0.26207,0.13634,0.20146,-0.30935,-0.028883,0.30608,-0.08257,-0.18463,0.071734,0.070244,0.0075375,0.057557,-0.037864,-0.10212,0.069581,0.077276,-0.035563,0.065784,0.009949,-0.18943,0.046879,0.24756,-0.18331,-0.32092,0.21862,0.21341,-0.29735,-0.080694,0.32949,-0.12148,-0.24465,0.45669,-0.015167,-0.87062,0.01819,0.907
